2.00000  7.13361  0.799882
2.01000  6.90421  0.811537
2.02005  6.72175  0.798754
2.03015  6.54913  0.793008
2.04030  6.97218  0.814037
2.05050  8.33743  0.880846
2.06076  6.67334  0.792056
2.07106  7.20207  0.820507
2.08141  7.21014  0.811349
2.09182  8.21557  0.877837
2.10228  6.35660  0.759842
2.11279  6.52478  0.763827
2.12336  6.50854  0.763896
2.13397  6.78178  0.780432
2.14464  7.00469  0.797288
2.15537  5.57253  0.699804
2.16614  5.78618  0.713689
2.17697  5.55154  0.693370
2.18786  5.83287  0.718175
2.19880  6.48765  0.757626
2.20979  5.86559  0.709269
2.22084  6.09915  0.731333
2.23194  5.34317  0.672943
2.24310  5.70381  0.697742
2.25432  5.93821  0.709248
2.26559  5.52088  0.675816
2.27692  5.75351  0.694357
2.28830  6.06443  0.713578
2.29974  4.60004  0.618292
2.31124  6.19067  0.705886
2.32280  5.00149  0.637257
2.33441  4.63653  0.609962
2.34609  4.90286  0.623979
2.35782  5.09462  0.637143
2.36960  5.77294  0.675019
2.38145  5.85251  0.685630
2.39336  5.94043  0.686235
2.40533  5.57410  0.653017
2.41735  6.38302  0.702826
2.42944  5.19806  0.632282
2.44159  4.20597  0.562640
2.45380  4.72004  0.592032
2.46606  4.85895  0.602070
2.47839  4.80430  0.586633
2.49079  5.91633  0.660509
2.50324  4.31768  0.557707
2.51576  4.53463  0.574804
2.52834  5.92475  0.653702
2.54098  5.57416  0.637999
2.55368  5.21218  0.612103
2.56645  4.96866  0.599433
2.57928  5.61176  0.625818
2.59218  6.27753  0.662861
2.60514  5.44398  0.624137
2.61817  5.81172  0.634639
2.63126  5.55772  0.621141
2.64441  4.24444  0.537965
2.65763  5.51197  0.617838
2.67092  5.05730  0.589538
2.68428  3.96044  0.506776
2.69770  4.63697  0.553796
2.71119  5.03253  0.584135
2.72474  5.15517  0.588830
2.73837  5.44165  0.599563
2.75206  4.36288  0.535043
2.76582  4.73898  0.554524
2.77965  4.86471  0.562074
2.79355  5.84602  0.616515
2.80751  5.20726  0.576980
2.82155  5.38845  0.586145
2.83566  5.47135  0.597234
2.84984  4.30125  0.521687
2.86409  4.95346  0.557369
2.87841  5.15150  0.563500
2.89280  4.93676  0.558611
2.90726  5.08681  0.561628
2.92180  4.82695  0.545840
2.93641  5.38086  0.573854
2.95109  4.99515  0.552932
2.96585  5.88146  0.601055
2.98068  4.68400  0.529431
2.99558  5.10578  0.556637
3.01056  4.15284  0.502910
3.02561  4.07542  0.490397
3.04074  4.58130  0.515763
3.05594  4.66352  0.525990
3.07122  4.54061  0.512087
3.08658  5.23694  0.550737
3.10201  4.48793  0.506697
3.11752  5.05784  0.537966
3.13311  4.66116  0.520848
3.14877  4.46303  0.505642
3.16452  4.87968  0.524970
3.18034  4.73717  0.512562
3.19624  5.14042  0.539773
3.21222  4.75328  0.512394
3.22828  5.12298  0.535253
3.24443  5.48233  0.550517
3.26065  6.36460  0.591541
3.27695  5.53802  0.548966
3.29334  5.34350  0.539278
3.30980  5.46311  0.544138
3.32635  3.56617  0.430251
3.34298  5.13245  0.521939
3.35970  4.98350  0.509870
3.37650  5.88053  0.553163
3.39338  4.42168  0.476682
3.41035  4.47754  0.477433
3.42740  4.99596  0.507158
3.44453  4.47060  0.476269
3.46176  5.23714  0.518096
3.47907  4.65389  0.484397
3.49646  4.45046  0.468360
3.51394  5.00588  0.499311
3.53151  4.82796  0.488531
3.54917  4.12218  0.452124
3.56692  4.58511  0.478703
3.58475  5.15212  0.502834
3.60268  4.86220  0.486910
3.62069  5.28313  0.505220
3.63879  4.44388  0.456581
3.65699  4.66856  0.472517
3.67527  5.45743  0.513834
3.69365  5.58126  0.513963
3.71212  4.67645  0.467319
3.73068  5.27965  0.500065
3.74933  4.30357  0.448715
3.76808  4.43499  0.452978
3.78692  4.54760  0.455948
3.80585  5.05490  0.480084
3.82488  4.79957  0.464238
3.84400  4.61457  0.455776
3.86322  5.98659  0.518754
3.88254  5.45051  0.493158
3.90195  4.50152  0.447921
3.92146  4.44969  0.443621
3.94107  4.93981  0.467720
3.96078  5.29850  0.480640
3.98058  4.24632  0.431551
4.00048  4.66944  0.449455
4.02049  4.32918  0.430247
4.04059  4.38428  0.428976
4.06079  3.76676  0.394511
4.08109  4.41188  0.428212
4.10150  3.61597  0.382364
4.12201  4.17313  0.410637
4.14262  4.44637  0.426259
4.16333  4.06507  0.406552
4.18415  3.98033  0.400144
4.20507  3.15006  0.354425
4.22609  3.92755  0.396464
4.24722  4.44449  0.424653
4.26846  3.64173  0.377726
4.28980  3.59824  0.375640
4.31125  3.34475  0.359674
4.33281  3.68292  0.374275
4.35447  3.96360  0.388927
4.37624  3.25919  0.347213
4.39812  3.15613  0.344002
4.42012  3.28973  0.348143
4.44222  3.33196  0.353681
4.46443  4.10683  0.391382
4.48675  2.69234  0.307866
4.50918  3.45721  0.356480
4.53173  3.18709  0.341050
4.55439  3.78272  0.373448
4.57716  3.77254  0.370275
4.60005  3.05627  0.330947
4.62305  3.11419  0.333201
4.64616  2.89747  0.319124
4.66939  3.67729  0.357254
4.69274  3.19750  0.329638
4.71620  3.71186  0.357305
4.73978  2.75152  0.305487
4.76348  2.80977  0.308105
4.78730  2.86258  0.304326
4.81124  3.48373  0.343889
4.83529  2.78297  0.304924
4.85947  2.64078  0.294242
4.88377  3.29401  0.329387
4.90818  3.04122  0.313836
4.93273  3.20680  0.322010
4.95739  2.87339  0.306015
4.98218  3.15040  0.315020
5.00709  2.64904  0.289503
5.03212  2.67154  0.292173
5.05728  2.67100  0.289551
5.08257  2.87519  0.297491
5.10798  3.17405  0.313115
5.13352  3.01327  0.303600
5.15919  2.77824  0.291352
5.18499  3.19282  0.308698
5.21091  3.30635  0.313663
5.23697  2.99109  0.300016
5.26315  3.06817  0.302029
5.28947  3.06808  0.302130
5.31591  2.87516  0.290990
5.34249  3.58750  0.325197
5.36920  2.99720  0.296103
5.39605  2.94971  0.292982
5.42303  3.31897  0.313599
5.45015  2.80218  0.282928
5.47740  2.74165  0.278952
5.50478  3.34157  0.308462
5.53231  3.03555  0.290559
5.55997  2.85793  0.280517
5.58777  2.36508  0.256168
5.61571  3.05076  0.290616
5.64379  2.38823  0.255332
5.67201  2.42938  0.257484
5.70037  2.81680  0.277433
5.72887  2.97170  0.283544
5.75751  2.85678  0.277081
5.78630  2.77743  0.275499
5.81523  2.99633  0.283213
5.84431  2.93877  0.278661
5.87353  2.57495  0.259861
5.90290  3.30479  0.294417
5.93241  3.76315  0.314630
5.96207  2.83504  0.270353
5.99188  2.71473  0.262692
6.02184  3.43105  0.297383
6.05195  2.92339  0.274248
6.08221  2.95036  0.274874
6.11262  2.88703  0.271802
6.14319  2.99114  0.272942
6.17390  2.83690  0.266861
6.20477  3.34483  0.288812
6.23580  2.95483  0.270953
6.26697  2.79928  0.263626
6.29831  2.84828  0.262571
6.32980  2.73533  0.255802
6.36145  3.15868  0.274236
6.39326  2.91846  0.264190
6.42522  2.58099  0.247135
6.45735  2.54058  0.245873
6.48964  2.42071  0.238495
6.52209  2.63691  0.246120
6.55470  3.12642  0.269405
6.58747  2.70235  0.249192
6.62041  2.52301  0.241607
6.65351  2.65081  0.246738
6.68678  2.57342  0.241576
6.72021  2.86799  0.253262
6.75381  2.89858  0.253916
6.78758  2.35736  0.229582
6.82152  2.47689  0.232857
6.85563  2.46591  0.231630
6.88990  2.75034  0.246365
6.92435  2.36261  0.224885
6.95898  2.49124  0.231637
6.99377  2.74770  0.243078
7.02874  2.85398  0.246747
7.06388  2.06644  0.204827
7.09920  2.43842  0.225377
7.13470  2.32956  0.220662
7.17037  2.57911  0.229247
7.20622  2.43678  0.224786
7.24226  2.36323  0.221013
7.27847  2.32004  0.216049
7.31486  2.69531  0.233078
7.35143  2.56274  0.226589
7.38819  2.24002  0.209238
7.42513  2.39202  0.216063
7.46226  2.14146  0.205221
7.49957  2.13427  0.201206
7.53707  2.14993  0.205083
7.57475  2.02727  0.196064
7.61263  2.33159  0.211068
7.65069  1.88173  0.188886
7.68894  2.19031  0.202065
7.72739  2.20972  0.201785
7.76602  1.90987  0.189423
7.80485  2.24480  0.202406
7.84388  2.42590  0.208560
7.88310  2.23485  0.200712
7.92251  2.30326  0.206462
7.96213  2.46534  0.212837
8.00194  2.00038  0.191645
8.04195  2.19542  0.197327
8.08216  2.28887  0.202199
8.12257  2.56965  0.215469
8.16318  2.39738  0.205944
8.20400  2.38271  0.204412
8.24502  2.15879  0.196174
8.28624  2.59399  0.212433
8.32767  2.15351  0.192252
8.36931  2.40216  0.203271
8.41116  2.28097  0.197655
8.45321  2.06081  0.186408
8.49548  2.22944  0.193120
8.53796  1.95250  0.181952
8.58065  2.16734  0.189828
8.62355  1.99732  0.182326
8.66667  2.25409  0.192220
8.71000  2.49966  0.202555
8.75355  2.44042  0.199713
8.79732  2.24965  0.188944
8.84130  2.41656  0.197849
8.88551  2.73499  0.209745
8.92994  2.21537  0.186264
8.97459  2.45429  0.197541
9.01946  2.54506  0.200410
9.06456  2.72549  0.207178
9.10988  2.57276  0.200230
9.15543  2.62138  0.200777
9.20121  2.78433  0.206256
9.24721  2.63997  0.201713
9.29345  2.80621  0.205739
9.33992  2.67783  0.200253
9.38662  2.77804  0.205570
9.43355  2.56506  0.195747
9.48072  3.03864  0.215493
9.52812  2.88088  0.206669
9.57576  2.65731  0.197304
9.62364  2.67846  0.198619
9.67176  2.60092  0.195196
9.72012  2.63515  0.195447
9.76872  2.86745  0.204995
9.81756  2.82098  0.202001
9.86665  2.88520  0.203547
9.91598  3.51422  0.224356
9.96556  2.95068  0.204079
10.0154  3.45511  0.220954
10.0655  2.70881  0.194182
10.1158  2.92351  0.200723
10.1664  3.09364  0.208807
10.2172  2.93941  0.200722
10.2683  3.14658  0.206907
10.3196  3.02514  0.203478
10.3712  3.10971  0.205839
10.4231  2.87205  0.195918
10.4752  2.92797  0.198172
10.5276  3.16963  0.206711
10.5802  3.05571  0.201858
10.6331  3.01563  0.200172
10.6863  2.85488  0.193393
10.7397  2.90361  0.194424
10.7934  2.95071  0.195559
10.8474  2.89522  0.192205
10.9016  2.52708  0.178427
10.9561  2.53794  0.179690
11.0109  2.87033  0.190707
11.0660  3.00992  0.195116
11.1213  2.88734  0.190642
11.1769  3.08601  0.195758
11.2328  2.64981  0.180251
11.2889  2.88978  0.187047
11.3454  2.69510  0.181557
11.4021  2.81504  0.184045
11.4591  2.75284  0.181596
11.5164  2.92367  0.187234
11.5740  2.70226  0.177664
11.6319  2.86320  0.183820
11.6900  2.64239  0.176380
11.7485  2.68209  0.176526
11.8072  2.81594  0.180295
11.8663  2.91518  0.184363
11.9256  2.91608  0.183632
11.9852  3.04527  0.187384
12.0452  3.12376  0.189479
12.1054  2.92834  0.182110
12.1659  2.96609  0.183328
12.2267  2.55205  0.167426
12.2879  2.72769  0.173013
12.3493  2.99923  0.181467
12.4111  2.79189  0.175238
12.4731  3.17318  0.185532
12.5355  2.94450  0.177538
12.5982  3.06708  0.181497
12.6611  3.34483  0.190670
12.7244  2.90504  0.175595
12.7881  3.04066  0.178604
12.8520  3.24504  0.185224
12.9163  3.35377  0.187740
12.9809  3.06870  0.179022
13.0458  3.09072  0.179652
13.1110  3.15412  0.180413
13.1765  3.09086  0.176756
13.2424  3.16189  0.179123
13.3086  3.34881  0.184677
13.3752  3.47340  0.187107
13.4421  3.36800  0.184897
13.5093  3.32050  0.182790
13.5768  3.21433  0.178069
13.6447  3.16370  0.177099
13.7129  3.30240  0.180742
13.7815  3.07747  0.174675
13.8504  2.77101  0.163619
13.9196  2.85828  0.166019
13.9892  3.26414  0.178939
14.0592  2.91334  0.167696
14.1295  2.90004  0.166763
14.2001  2.98121  0.167955
14.2711  3.11987  0.172754
14.3425  2.83127  0.162792
14.4142  3.17769  0.173766
14.4863  3.15081  0.172262
14.5587  2.93018  0.165869
14.6315  3.02517  0.167697
14.7047  2.86952  0.162910
14.7782  2.82285  0.160596
14.8521  3.02002  0.165881
14.9263  3.00640  0.164821
15.0010  2.83307  0.159568
15.0760  2.94773  0.162459
15.1513  2.97319  0.163682
15.2271  2.71990  0.155549
15.3032  2.70838  0.155004
15.3798  2.78800  0.156045
15.4566  2.85104  0.158142
15.5339  3.00444  0.161534
15.6116  3.19653  0.166749
15.6897  2.96759  0.159838
15.7681  3.08526  0.163304
15.8469  2.91328  0.157111
15.9262  2.88762  0.157253
16.0058  3.13358  0.163310
16.0858  3.12120  0.162065
16.1663  2.91230  0.155247
16.2471  3.08932  0.160720
16.3283  2.92384  0.154981
16.4100  3.24342  0.164079
16.4920  3.16095  0.160836
16.5745  2.97929  0.155661
16.6574  3.20194  0.161430
16.7407  2.83974  0.150292
16.8244  2.96858  0.154569
16.9085  3.01803  0.155318
16.9930  3.23448  0.160831
17.0780  2.88015  0.151219
17.1634  2.98409  0.152991
17.2492  2.92845  0.151081
17.3354  2.69895  0.144198
17.4221  3.14660  0.155706
17.5092  2.94995  0.150993
17.5968  2.97027  0.151217
17.6848  2.81131  0.146294
17.7732  3.03859  0.152147
17.8620  2.91296  0.148732
17.9514  2.84175  0.146059
18.0411  3.11445  0.153212
18.1313  2.92165  0.147935
18.2220  2.89703  0.146946
18.3131  2.87181  0.145781
18.4047  2.64145  0.139470
18.4967  2.72859  0.141973
18.5892  2.67725  0.139375
18.6821  2.92976  0.145998
18.7755  2.71437  0.139490
18.8694  2.72490  0.139707
18.9637  2.84999  0.142500
19.0586  2.71189  0.139076
19.1539  2.97272  0.145027
19.2496  2.95922  0.144334
19.3459  3.07564  0.147030
19.4426  2.84175  0.141282
19.5398  2.95054  0.143049
19.6375  3.09693  0.145652
19.7357  2.80868  0.138810
19.8344  3.11775  0.145205
19.9335  2.92333  0.140470
20.0332  3.16797  0.145927
20.1334  3.13472  0.145120
20.2341  3.10560  0.144506
20.3352  3.25383  0.147495
20.4369  3.23358  0.146435
20.5391  3.29634  0.147560
20.6418  3.04634  0.141331
20.7450  2.91534  0.137693
20.8487  2.91918  0.138605
20.9530  2.96043  0.138727
21.0577  2.98807  0.138638
21.1630  2.92655  0.138021
21.2688  2.88845  0.135404
21.3752  2.91863  0.137337
21.4820  2.91816  0.136242
21.5895  3.03787  0.139394
21.6974  2.76297  0.131175
21.8059  3.03230  0.137597
21.9149  2.98921  0.136440
22.0245  3.03771  0.137361
22.1346  3.07758  0.137536
22.2453  3.19419  0.140100
22.3565  3.40489  0.144543
22.4683  3.19793  0.139145
22.5806  3.37740  0.143133
22.6935  3.11294  0.136914
22.8070  3.16944  0.137878
22.9210  3.33423  0.141815
23.0357  3.44679  0.144282
23.1508  3.22340  0.139186
23.2666  3.45819  0.144225
23.3829  3.27614  0.140135
23.4998  3.37225  0.141228
23.6173  3.22393  0.137866
23.7354  3.33762  0.140240
23.8541  3.29218  0.138920
23.9734  3.22166  0.137329
24.0932  3.23195  0.136758
24.2137  3.35812  0.139052
24.3348  3.41545  0.139575
24.4564  3.20867  0.135219
24.5787  3.52360  0.141832
24.7016  3.47733  0.140786
24.8251  3.27056  0.135991
24.9493  3.29422  0.136178
25.0740  3.57231  0.141898
25.1994  3.76927  0.145403
25.3254  3.79457  0.145975
25.4520  3.79638  0.145689
25.5793  3.48468  0.138937
25.7071  3.64043  0.141892
25.8357  3.59237  0.140924
25.9649  3.65769  0.141820
26.0947  3.29395  0.133965
26.2252  3.47965  0.137328
26.3563  3.59403  0.139931
26.4881  3.34512  0.134496
26.6205  3.19618  0.131222
26.7536  3.44732  0.135743
26.8874  3.40867  0.135215
27.0218  3.13612  0.129310
27.1569  3.37065  0.133591
27.2927  3.21966  0.130880
27.4292  3.09487  0.127656
27.5663  3.20529  0.130458
27.7042  3.25407  0.130933
27.8427  3.33685  0.132697
27.9819  3.05363  0.125729
28.1218  3.33146  0.132057
28.2624  3.17523  0.127985
28.4037  3.09865  0.126340
28.5457  3.13613  0.127058
28.6885  3.01113  0.124181
28.8319  2.82203  0.120034
28.9761  2.83246  0.119532
29.1209  2.98272  0.122505
29.2666  2.86117  0.119202
29.4129  2.97921  0.121804
29.5599  2.99456  0.122487
29.7078  3.01027  0.121846
29.8563  3.05150  0.122661
30.0056  2.61948  0.112830
30.1556  2.93542  0.120116
30.3064  2.73614  0.115946
30.4579  2.85734  0.118925
30.6102  2.81171  0.117415
30.7632  2.99738  0.121553
30.9171  2.64582  0.113915
31.0716  2.98541  0.121047
31.2270  2.81132  0.116939
31.3831  2.84245  0.117304
31.5401  2.74135  0.115797
31.6978  2.64578  0.112730
31.8562  2.74327  0.114767
32.0155  2.53904  0.110246
32.1756  2.91317  0.118348
32.3365  2.71890  0.114035
32.4982  2.77656  0.114967
32.6607  2.70489  0.113272
32.8240  2.75477  0.114891
32.9881  2.66411  0.112124
33.1530  2.84194  0.116004
33.3188  2.66502  0.111589
33.4854  2.75318  0.113791
33.6528  2.64244  0.111206
33.8211  2.69857  0.112407
33.9902  2.80680  0.115029
34.1601  2.66308  0.111345
34.3309  2.54852  0.108716
34.5026  2.68448  0.111674
34.6751  2.88521  0.115629
34.8485  2.70752  0.111108
35.0227  2.69235  0.111238
35.1978  2.43442  0.105389
35.3738  2.52555  0.107504
35.5507  2.67341  0.110301
35.7284  2.58756  0.108692
35.9071  2.50766  0.106554
36.0866  2.28687  0.101878
36.2670  2.40764  0.104009
36.4484  2.59216  0.108245
36.6306  2.55811  0.107059
36.8138  2.54802  0.107109
36.9978  2.55106  0.107137
37.1828  2.51120  0.106185
37.3687  2.49592  0.105414
37.5556  2.56804  0.107123
37.7434  2.47535  0.104963
37.9321  2.75814  0.110890
38.1217  2.65529  0.108668
38.3124  2.58816  0.106749
38.5039  2.63141  0.107441
38.6964  2.55475  0.106085
38.8899  2.71825  0.109200
39.0844  2.28877  0.0996090
39.2798  2.35752  0.101512
39.4762  2.33789  0.101079
39.6736  2.46343  0.103789
39.8719  2.47526  0.104004
40.0713  2.57492  0.105593
40.2717  2.61071  0.106783
40.4730  2.60456  0.106517
40.6754  2.46803  0.103229
40.8788  2.49114  0.103453
41.0831  2.70479  0.108107
41.2886  2.67589  0.107328
41.4950  2.52718  0.104147
41.7025  2.78867  0.109691
41.9110  2.68152  0.107496
42.1206  2.77716  0.109704
42.3312  2.68097  0.107413
42.5428  2.72986  0.108230
42.7555  2.91740  0.112155
42.9693  3.06732  0.114883
43.1842  2.99605  0.113342
43.4001  2.82446  0.109551
43.6171  2.67467  0.106602
43.8352  2.87771  0.110667
44.0543  2.68301  0.106207
44.2746  2.69799  0.106950
44.4960  2.60695  0.104694
44.7185  2.58794  0.104080
44.9421  2.73950  0.107574
45.1668  2.62717  0.104924
45.3926  2.71322  0.106966
45.6196  2.70229  0.106512
45.8477  2.70887  0.106422
46.0769  2.82206  0.109049
46.3073  2.71490  0.106764
46.5388  2.89693  0.110669
46.7715  2.81218  0.108637
47.0054  2.65598  0.105794
47.2404  2.88364  0.110218
47.4766  2.63203  0.105114
47.7140  2.65555  0.105349
47.9525  2.80469  0.108021
48.1923  2.63720  0.104635
48.4333  2.57760  0.103694
48.6754  2.51221  0.102156
48.9188  2.59242  0.104022
49.1634  2.55891  0.103037
49.4092  2.32405  0.0982046
49.6563  2.52952  0.102051
49.9045  2.33876  0.0984534
50.1541  2.50686  0.102241
50.4048  2.33528  0.0983552
50.6569  2.35013  0.0984586
50.9102  2.63750  0.104690
51.1647  2.38529  0.0989788
51.4205  2.53104  0.102353
51.6776  2.35997  0.0987325
51.9360  2.57600  0.103119
52.1957  2.64172  0.104842
52.4567  2.64553  0.104583
52.7190  2.68997  0.105462
52.9826  2.56489  0.103248
53.2475  2.55050  0.102559
53.5137  2.67136  0.105316
53.7813  2.45990  0.100859
54.0502  2.46136  0.100717
54.3204  2.35882  0.0989361
54.5920  2.43009  0.100180
54.8650  2.59690  0.103366
55.1393  2.47020  0.101093
55.4150  2.37905  0.0992781
55.6921  2.32292  0.0979226
55.9706  2.42544  0.0995587
56.2504  2.43543  0.100396
56.5317  2.33862  0.0980996
56.8143  2.42428  0.0994338
57.0984  2.30464  0.0973241
57.3839  2.36430  0.0985243
57.6708  2.66569  0.105113
57.9592  2.60213  0.103657
58.2490  2.49231  0.101185
58.5402  2.58260  0.103396
58.8329  2.72063  0.105638
59.1271  2.32514  0.0975641
59.4227  2.57401  0.102882
59.7198  2.51483  0.101911
60.0184  2.51341  0.101833
60.3185  2.57325  0.103538
60.6201  2.55805  0.103354
60.9232  2.55862  0.102789
61.2278  2.49164  0.101293
61.5340  2.70657  0.105809
61.8416  2.45222  0.100300
62.1508  2.84486  0.108711
62.4616  2.61251  0.103756
62.7739  2.84113  0.108507
63.0878  2.68375  0.105530
63.4032  2.62165  0.104175
63.7202  2.90947  0.110292
64.0388  2.85548  0.109910
64.3590  2.79154  0.108654
64.6808  2.89271  0.110823
65.0042  2.80558  0.108521
65.3292  2.90039  0.110794
65.6559  2.82550  0.109290
65.9841  2.86612  0.109883
66.3141  2.80356  0.108806
66.6456  2.82093  0.109038
66.9789  2.84147  0.109468
67.3138  2.76315  0.108258
67.6503  2.93349  0.111803
67.9886  2.77834  0.108936
68.3285  2.97902  0.112794
68.6702  3.01428  0.113894
69.0135  2.92069  0.112010
69.3586  2.82046  0.110372
69.7054  2.72969  0.108321
70.0539  2.78238  0.109448
70.4042  2.86442  0.110898
70.7562  2.85582  0.110481
71.1100  2.86925  0.111087
71.4655  2.91755  0.112081
71.8229  2.84904  0.110829
72.1820  2.83418  0.110325
72.5429  2.76914  0.109764
72.9056  2.76234  0.109751
73.2701  2.86630  0.112001
73.6365  2.97924  0.114564
74.0047  2.93845  0.113479
74.3747  2.99220  0.115123
74.7466  3.12283  0.117453
75.1203  3.15831  0.119182
75.4959  3.03735  0.116512
75.8734  3.16543  0.118881
76.2527  2.80316  0.112041
76.6340  2.92478  0.114428
77.0172  2.83616  0.113061
77.4023  3.03310  0.116923
77.7893  3.05163  0.117595
78.1782  3.01165  0.116667
78.5691  2.73795  0.111666
78.9620  2.83213  0.113017
79.3568  2.98564  0.116470
79.7535  3.11551  0.119380
80.1523  2.86675  0.114513
80.5531  3.05786  0.118503
80.9558  3.00695  0.117490
81.3606  3.09349  0.119617
81.7674  3.31170  0.123933
82.1763  3.36920  0.125270
82.5871  2.98420  0.117562
83.0001  3.20274  0.122341
83.4151  3.02676  0.119142
83.8321  3.01811  0.118550
84.2513  3.27907  0.124570
84.6726  3.30446  0.124612
85.0959  3.15623  0.122075
85.5214  3.16599  0.122080
85.9490  3.18479  0.122808
86.3788  3.32207  0.125715
86.8106  3.17434  0.122958
87.2447  3.10859  0.121537
87.6809  3.27594  0.125245
88.1193  3.36896  0.126904
88.5599  3.43057  0.128992
89.0027  3.44535  0.129045
89.4477  3.32583  0.126700
89.8950  3.32345  0.127003
90.3445  3.53040  0.131755
90.7962  3.32845  0.127623
91.2502  3.33476  0.127851
91.7064  3.31967  0.127589
92.1649  3.48603  0.131083
92.6258  3.49502  0.131675
93.0889  3.43438  0.130733
93.5543  3.67097  0.135318
94.0221  3.45888  0.131362
94.4922  3.52378  0.132837
94.9647  3.63551  0.134792
95.4395  3.60413  0.134548
95.9167  3.82071  0.138913
96.3963  3.67956  0.136845
96.8783  3.68717  0.137126
97.3627  3.90354  0.141324
97.8495  3.78628  0.139153
98.3387  3.84598  0.140273
98.8304  4.02291  0.144034
99.3246  4.11897  0.145608
99.8212  3.88363  0.141767
100.320  4.07247  0.145545
100.822  4.20308  0.147827
101.326  4.25395  0.148952
101.833  4.08280  0.145698
102.342  4.45117  0.152682
102.854  4.37984  0.151745
103.368  4.94512  0.161796
103.885  5.34695  0.168572
104.404  4.97879  0.162813
104.926  5.06348  0.164048
105.451  4.89317  0.161617
105.978  5.38793  0.170887
106.508  5.49359  0.172855
107.040  5.33288  0.170225
107.576  5.48825  0.173248
108.113  5.71443  0.176853
108.654  5.78821  0.177628
109.197  5.39209  0.171514
109.743  5.81915  0.178773
110.292  5.94458  0.181201
110.843  6.03150  0.182684
111.398  5.99186  0.182310
111.955  6.16488  0.185317
112.514  5.76765  0.179384
113.077  5.56164  0.176242
113.642  5.77342  0.180488
114.211  5.69409  0.178759
114.782  5.72507  0.179934
115.356  5.88020  0.183323
115.932  5.32317  0.174072
116.512  5.65821  0.179955
117.095  5.40986  0.176147
117.680  5.53006  0.178598
118.268  5.32059  0.175255
118.860  5.90557  0.185501
119.454  5.62257  0.181089
120.051  5.66028  0.182044
120.652  5.45472  0.178889
121.255  5.37052  0.178058
121.861  5.61085  0.182110
122.470  5.31995  0.177300
123.083  4.92424  0.169940
123.698  5.25777  0.176900
124.317  5.46807  0.180644
124.938  5.41740  0.180068
125.563  4.99445  0.172965
126.191  4.95663  0.172545
126.822  5.00409  0.173447
127.456  4.99318  0.173986
128.093  5.21330  0.177864
128.734  5.29902  0.179795
129.377  5.10874  0.176325
130.024  5.02110  0.175708
130.674  4.91523  0.173462
131.328  4.87931  0.173314
131.984  5.13034  0.178192
132.644  5.03769  0.176391
133.307  4.91421  0.174497
133.974  5.42032  0.183614
134.644  4.95319  0.175451
135.317  5.00830  0.176641
135.994  5.32795  0.183419
136.674  5.42300  0.184365
137.357  5.36868  0.184411
138.044  5.57082  0.187216
138.734  5.64609  0.189436
139.428  5.90343  0.194484
140.125  5.85251  0.194085
140.825  6.03621  0.197395
141.530  6.13982  0.198940
142.237  5.71412  0.191603
142.948  6.18936  0.199939
143.663  6.23426  0.201474
144.381  5.93136  0.195760
145.103  6.52498  0.206123
145.829  6.10898  0.199127
146.558  6.56664  0.207475
147.291  6.50099  0.206839
148.027  6.82412  0.212903
148.767  6.82799  0.213110
149.511  6.79832  0.213014
150.259  7.02718  0.216779
151.010  7.05337  0.217860
151.765  7.44118  0.223892
152.524  8.03853  0.232427
153.287  8.20878  0.235364
154.053  8.93509  0.245886
154.823  9.69476  0.256730
155.597  9.71782  0.257429
156.375  10.0281  0.261958
157.157  10.2230  0.264019
157.943  10.0800  0.262880
158.733  9.70895  0.258347
159.526  9.68094  0.258944
160.324  9.63755  0.257956
161.126  9.53627  0.257663
161.931  8.66318  0.245261
162.741  8.55719  0.244332
163.555  8.71930  0.247208
164.372  7.93002  0.235813
165.194  7.80219  0.233893
166.020  7.28058  0.225936
166.850  6.80757  0.218847
167.685  7.01275  0.222928
168.523  6.41372  0.213266
169.366  6.10785  0.208559
170.212  6.40435  0.213911
171.064  6.06290  0.208803
171.919  5.67263  0.201490
172.778  6.11289  0.209747
173.642  6.54827  0.217680
174.511  6.59792  0.218943
175.383  6.42738  0.216371
176.260  6.57772  0.218870
177.141  6.24433  0.213708
178.027  6.70992  0.221791
178.917  6.63680  0.219951
179.812  6.76984  0.223229
180.711  6.80423  0.224160
181.614  6.33704  0.215988
182.522  6.43312  0.218528
183.435  6.42458  0.218625
184.352  6.06398  0.212655
185.274  6.23331  0.215196
186.200  6.16658  0.214132
187.131  5.95331  0.210996
188.067  6.10153  0.214781
189.007  5.66118  0.205686
189.952  6.08096  0.214797
190.902  5.92599  0.212128
191.857  5.67872  0.206862
192.816  5.68278  0.207298
193.780  5.68268  0.208167
194.749  5.83211  0.210859
195.723  5.52378  0.205291
196.701  5.90215  0.212655
197.685  5.62198  0.208225
198.673  5.38151  0.203538
199.667  5.41978  0.204395
200.665  5.72248  0.210674
201.668  5.20172  0.200171
202.677  5.31300  0.202263
203.690  5.36897  0.204237
204.708  5.24044  0.200994
205.732  5.40756  0.204807
206.761  5.41343  0.204624
207.794  5.66469  0.211110
208.833  5.19479  0.202377
209.878  5.13779  0.201276
210.927  5.34666  0.206127
211.982  5.27320  0.204144
213.042  5.42807  0.207515
214.107  5.14742  0.202221
215.177  5.26016  0.204514
216.253  5.46470  0.209560
217.334  5.21006  0.203869
218.421  5.22773  0.204485
219.513  5.38319  0.208385
220.611  5.13883  0.203095
221.714  5.30082  0.207333
222.822  4.89118  0.198773
223.936  4.98238  0.200187
225.056  5.00551  0.201593
226.181  5.80713  0.217944
227.312  5.85061  0.217837
228.449  5.13608  0.204105
229.591  5.08573  0.203226
230.739  5.15720  0.205770
231.893  5.28479  0.207813
233.052  5.23440  0.206762
234.218  5.37228  0.210373
235.389  4.99593  0.202515
236.566  5.26739  0.208249
237.748  5.01413  0.202572
238.937  5.31188  0.209424
240.132  5.55325  0.215219
241.332  5.23114  0.209419
242.539  5.27506  0.210164
243.752  5.33060  0.211086
244.971  5.54506  0.215649
246.195  5.45559  0.214483
247.426  5.24847  0.210416
248.664  5.16106  0.208330
249.907  5.12386  0.208514
251.156  5.24131  0.211044
252.412  5.28180  0.211876
253.674  5.29810  0.212068
254.943  5.42536  0.214905
256.217  5.30612  0.212508
257.498  5.31444  0.212088
258.786  5.44160  0.215428
260.080  5.10354  0.208866
261.380  5.55332  0.217656
262.687  5.28106  0.212838
264.001  5.88072  0.225343
265.321  5.19019  0.212094
266.647  5.78610  0.224286
267.980  6.01178  0.228198
269.320  6.13925  0.231100
270.667  6.19909  0.232323
272.020  6.14531  0.231332
273.380  6.16977  0.232927
274.747  6.24267  0.234116
276.121  6.32184  0.235563
277.502  5.80605  0.225100
278.889  6.23222  0.233727
280.284  6.01305  0.230375
281.685  5.81997  0.225870
283.093  6.40022  0.237190
284.509  5.98556  0.229778
285.931  6.56677  0.241187
287.361  6.56781  0.241669
288.798  6.52612  0.240304
290.242  6.34376  0.237055
291.693  6.50544  0.241441
293.152  6.40258  0.239401
294.617  6.23891  0.236548
296.090  6.23616  0.236006
297.571  6.35537  0.238829
299.059  6.47696  0.241675
300.554  6.33297  0.238621
302.057  6.48462  0.242279
303.567  6.50298  0.242787
305.085  6.22878  0.237686
306.610  6.05805  0.233971
308.143  6.37226  0.241324
309.684  6.65534  0.247068
311.232  6.52669  0.243609
312.789  6.47672  0.242954
314.353  6.24068  0.238902
315.924  6.62108  0.246938
317.504  5.78021  0.229714
319.091  6.44652  0.243795
320.687  6.12377  0.236848
322.290  6.49085  0.245240
323.902  5.86573  0.232339
325.521  6.54493  0.246035
327.149  6.25391  0.240294
328.785  6.14205  0.238780
330.429  6.17077  0.239111
332.081  6.00701  0.235140
333.741  6.40095  0.244198
335.410  6.32539  0.243155
337.087  6.04871  0.237927
338.772  6.23297  0.241540
340.466  6.04878  0.238440
342.168  5.65642  0.231140
343.879  5.52049  0.228593
345.599  6.15471  0.241240
347.327  6.29248  0.243979
349.063  5.70441  0.231423
350.809  5.62031  0.231396
352.563  5.98056  0.238844
354.326  5.81746  0.234500
356.097  5.76714  0.233288
357.878  5.89743  0.237003
359.667  5.63447  0.231241
361.465  5.71888  0.234284
363.273  5.53272  0.230481
365.089  6.12357  0.242084
366.915  6.01237  0.241095
368.749  5.78359  0.235592
370.593  5.32292  0.227165
372.446  5.67715  0.234985
374.308  5.44158  0.230131
376.180  5.51611  0.231714
378.060  5.67453  0.234460
379.951  5.68187  0.235536
381.851  5.63066  0.234015
383.760  5.55554  0.232793
385.679  5.43698  0.230525
387.607  5.72085  0.236850
389.545  5.78651  0.238135
391.493  5.74868  0.239122
393.450  5.90767  0.241737
395.417  5.69049  0.237159
397.395  5.31354  0.228171
399.382  5.84079  0.240693
401.378  5.58799  0.235877
403.385  5.48611  0.233626
405.402  5.74730  0.239232
407.429  5.77982  0.241014
409.466  6.13911  0.247686
411.514  5.65585  0.238035
413.571  5.66104  0.238990
415.639  5.86611  0.242603
417.717  5.45159  0.234175
419.806  5.97885  0.246026
421.905  5.50771  0.236208
424.014  6.18593  0.251118
426.135  5.75822  0.242156
428.265  6.07593  0.249329
430.407  5.92031  0.245691
432.559  5.95959  0.247787
434.721  5.74661  0.242176
436.895  6.12662  0.252075
439.079  6.08716  0.250152
441.275  6.27075  0.254865
443.481  5.97423  0.248777
445.699  6.21612  0.253891
447.927  6.49034  0.260516
450.167  6.46748  0.258654
452.418  6.07566  0.251544
454.680  6.05290  0.250832
456.953  6.43686  0.259844
459.238  6.37371  0.259652
461.534  6.34130  0.258723
463.842  6.38474  0.259288
466.161  6.62202  0.265294
468.492  6.22695  0.258401
470.834  6.29363  0.259694
473.188  5.93378  0.253230
475.554  6.33000  0.261234
477.932  5.94326  0.252099
480.322  6.29880  0.260930
482.723  6.21282  0.259753
485.137  6.37730  0.264077
487.563  6.27246  0.262074
490.000  5.81970  0.251877
492.450  6.04137  0.256872
494.913  5.93390  0.254673
497.387  5.89003  0.254028
499.874  5.93609  1.14187
500.000  7.13361  0.799882
