2.00000  6.33097  0.746322
2.01000  6.23057  0.758343
2.02005  5.97240  0.735056
2.03015  6.21589  0.755471
2.04030  5.86885  0.730026
2.05050  4.24095  0.618831
2.06076  5.09754  0.682108
2.07106  6.22984  0.749503
2.08141  5.94446  0.734026
2.09182  6.12520  0.737507
2.10228  5.88412  0.721472
2.11279  5.42579  0.689501
2.12336  5.64093  0.707492
2.13397  6.15238  0.735392
2.14464  6.70844  0.759388
2.15537  4.45816  0.616501
2.16614  6.06553  0.729369
2.17697  6.11303  0.725235
2.18786  5.07816  0.650063
2.19880  5.26016  0.668035
2.20979  5.75853  0.684529
2.22084  4.27520  0.598502
2.23194  5.11347  0.644528
2.24310  3.81892  0.550599
2.25432  6.43303  0.725525
2.26559  4.50346  0.609393
2.27692  5.63119  0.678837
2.28830  5.55756  0.668814
2.29974  5.76366  0.682708
2.31124  5.06436  0.646296
2.32280  5.06834  0.637322
2.33441  5.45466  0.658773
2.34609  4.48658  0.592338
2.35782  4.49231  0.591385
2.36960  4.11344  0.563156
2.38145  4.28307  0.571578
2.39336  5.11726  0.626925
2.40533  4.09672  0.555326
2.41735  4.55375  0.585182
2.42944  5.17213  0.619453
2.44159  4.46852  0.570705
2.45380  4.37526  0.563949
2.46606  3.99449  0.536821
2.47839  5.90457  0.664514
2.49079  4.41885  0.553587
2.50324  4.29330  0.551469
2.51576  5.63394  0.645188
2.52834  4.15544  0.544590
2.54098  4.67999  0.562174
2.55368  4.68867  0.574009
2.56645  4.13283  0.535520
2.57928  4.87561  0.586085
2.59218  4.75999  0.576986
2.60514  4.36939  0.547711
2.61817  4.06359  0.530314
2.63126  4.69370  0.565096
2.64441  5.29748  0.592738
2.65763  4.41372  0.534754
2.67092  4.39152  0.532493
2.68428  4.78893  0.560013
2.69770  4.23088  0.523586
2.71119  3.85819  0.495144
2.72474  3.90077  0.495660
2.73837  4.28296  0.518537
2.75206  4.40835  0.519404
2.76582  4.62234  0.544892
2.77965  4.19471  0.516549
2.79355  4.88458  0.558415
2.80751  4.26713  0.517695
2.82155  4.95121  0.561778
2.83566  3.65738  0.481275
2.84984  4.74950  0.536486
2.86409  4.78974  0.540846
2.87841  4.89071  0.544218
2.89280  4.57163  0.519651
2.90726  4.58864  0.522971
2.92180  4.60085  0.514347
2.93641  4.81498  0.537168
2.95109  3.38870  0.444417
2.96585  5.06451  0.548889
2.98068  4.20308  0.492221
2.99558  4.83886  0.521605
3.01056  4.94563  0.532822
3.02561  4.86346  0.519765
3.04074  5.87689  0.579194
3.05594  5.41324  0.554436
3.07122  4.42893  0.491012
3.08658  4.88241  0.522867
3.10201  5.61777  0.555995
3.11752  4.80176  0.513048
3.13311  4.40020  0.492038
3.14877  4.63998  0.504564
3.16452  5.62396  0.554557
3.18034  4.18751  0.471339
3.19624  4.77194  0.507543
3.21222  4.39119  0.480733
3.22828  4.83941  0.503590
3.24443  5.73315  0.552203
3.26065  4.77665  0.498550
3.27695  4.30224  0.468697
3.29334  4.67644  0.488301
3.30980  5.57393  0.539106
3.32635  4.85835  0.496455
3.34298  4.90851  0.494322
3.35970  4.79816  0.491479
3.37650  4.79081  0.490267
3.39338  5.08776  0.496797
3.41035  6.24107  0.557772
3.42740  6.11602  0.554923
3.44453  4.68501  0.476619
3.46176  4.91640  0.492064
3.47907  4.87919  0.481805
3.49646  4.51604  0.467200
3.51394  4.88976  0.486369
3.53151  5.46942  0.514051
3.54917  5.20225  0.495640
3.56692  4.70454  0.469948
3.58475  4.91579  0.479904
3.60268  4.83206  0.472789
3.62069  4.17847  0.441555
3.63879  4.96535  0.473875
3.65699  4.70308  0.466964
3.67527  5.36621  0.494181
3.69365  4.29393  0.439503
3.71212  4.60347  0.457061
3.73068  5.02090  0.477241
3.74933  4.53098  0.441733
3.76808  5.04320  0.474465
3.78692  5.19310  0.481192
3.80585  4.75868  0.458237
3.82488  4.46198  0.442388
3.84400  4.05037  0.419194
3.86322  4.53011  0.441483
3.88254  4.68926  0.451673
3.90195  4.23380  0.424573
3.92146  4.44425  0.430843
3.94107  3.84926  0.398124
3.96078  3.80917  0.392245
3.98058  4.45685  0.430777
4.00048  4.10958  0.413767
4.02049  4.95898  0.453026
4.04059  3.67901  0.388571
4.06079  4.23100  0.415892
4.08109  4.69849  0.441618
4.10150  4.07832  0.408436
4.12201  4.33369  0.421097
4.14262  3.72765  0.384999
4.16333  4.23001  0.410139
4.18415  4.22718  0.412832
4.20507  4.55632  0.421656
4.22609  3.85168  0.386109
4.24722  3.55519  0.373179
4.26846  4.09884  0.397487
4.28980  4.04944  0.398284
4.31125  3.72585  0.379314
4.33281  2.74617  0.323431
4.35447  3.15987  0.340301
4.37624  3.86913  0.379861
4.39812  4.06992  0.391328
4.42012  3.12902  0.337501
4.44222  4.03233  0.383427
4.46443  3.88915  0.373120
4.48675  3.57196  0.360250
4.50918  3.45946  0.348572
4.53173  3.54776  0.358561
4.55439  3.48298  0.350051
4.57716  3.22978  0.335575
4.60005  3.60335  0.346558
4.62305  3.65885  0.357221
4.64616  3.24278  0.333307
4.66939  3.46399  0.339693
4.69274  3.44246  0.343431
4.71620  3.28056  0.329369
4.73978  3.19762  0.327456
4.76348  3.30377  0.329843
4.78730  3.18494  0.324281
4.81124  3.68160  0.346712
4.83529  3.66479  0.344839
4.85947  3.46630  0.334070
4.88377  3.48123  0.334370
4.90818  3.69258  0.342666
4.93273  3.35967  0.329302
4.95739  3.41434  0.328448
4.98218  3.11232  0.310313
5.00709  3.42421  0.327767
5.03212  3.16822  0.312407
5.05728  3.26585  0.319676
5.08257  3.34047  0.324095
5.10798  3.54652  0.329811
5.13352  3.06940  0.303574
5.15919  3.47479  0.317598
5.18499  3.13435  0.303115
5.21091  3.54197  0.322130
5.23697  2.66735  0.278050
5.26315  3.43831  0.317714
5.28947  3.25119  0.308854
5.31591  2.62415  0.274837
5.34249  3.74405  0.331464
5.36920  3.30000  0.307014
5.39605  2.65795  0.277964
5.42303  3.08614  0.299477
5.45015  3.20301  0.299381
5.47740  3.31231  0.305759
5.50478  2.77980  0.277210
5.53231  2.92228  0.281313
5.55997  3.30700  0.302051
5.58777  3.25810  0.296496
5.61571  3.16045  0.295868
5.64379  3.08118  0.292081
5.67201  2.89391  0.279347
5.70037  2.78343  0.272056
5.72887  3.03177  0.284902
5.75751  2.98995  0.284158
5.78630  2.80729  0.273418
5.81523  2.64816  0.266200
5.84431  2.68354  0.262421
5.87353  2.84208  0.272880
5.90290  2.69508  0.263965
5.93241  3.05263  0.279453
5.96207  2.70406  0.261891
5.99188  2.94918  0.270167
6.02184  2.37149  0.242825
6.05195  3.23821  0.285383
6.08221  3.04759  0.274168
6.11262  2.48742  0.245870
6.14319  2.89789  0.267765
6.17390  2.81896  0.262205
6.20477  2.87113  0.265020
6.23580  2.79803  0.260346
6.26697  2.73302  0.253715
6.29831  2.86304  0.260498
6.32980  2.99894  0.265546
6.36145  2.36917  0.235238
6.39326  2.87431  0.259242
6.42522  2.60746  0.246689
6.45735  2.99446  0.263882
6.48964  2.66663  0.247835
6.52209  2.43308  0.235373
6.55470  2.76019  0.250402
6.58747  2.56896  0.241281
6.62041  2.59922  0.243200
6.65351  2.46003  0.232098
6.68678  2.71831  0.246700
6.72021  2.76078  0.247208
6.75381  2.85772  0.252036
6.78758  3.07596  0.258466
6.82152  2.70550  0.241083
6.85563  2.61847  0.235886
6.88990  3.17030  0.260568
6.92435  2.77219  0.244587
6.95898  2.68573  0.238538
6.99377  2.91017  0.248948
7.02874  2.69262  0.236483
7.06388  2.52247  0.228402
7.09920  3.15648  0.259021
7.13470  2.99771  0.248570
7.17037  2.83192  0.241326
7.20622  2.37388  0.221617
7.24226  2.83092  0.241873
7.27847  2.29048  0.216435
7.31486  2.69329  0.232866
7.35143  2.92027  0.243003
7.38819  2.52957  0.224028
7.42513  2.48010  0.221685
7.46226  2.67208  0.228250
7.49957  2.40739  0.216645
7.53707  2.78210  0.232907
7.57475  2.66450  0.229393
7.61263  3.09218  0.244628
7.65069  2.41413  0.213727
7.68894  2.63528  0.222915
7.72739  2.95485  0.236410
7.76602  3.25845  0.249691
7.80485  2.69312  0.223594
7.84388  2.89393  0.231222
7.88310  2.85773  0.228888
7.92251  2.62858  0.219340
7.96213  2.74265  0.224634
8.00194  2.88285  0.228831
8.04195  2.80290  0.224220
8.08216  2.88403  0.227113
8.12257  2.84337  0.224931
8.16318  2.52956  0.211354
8.20400  3.14408  0.235946
8.24502  2.84440  0.221210
8.28624  2.87606  0.223504
8.32767  3.00956  0.228076
8.36931  2.85129  0.220039
8.41116  2.89872  0.223132
8.45321  2.86603  0.222084
8.49548  2.87230  0.218039
8.53796  2.84700  0.220005
8.58065  2.98787  0.223646
8.62355  2.72658  0.211478
8.66667  3.15372  0.226880
8.71000  2.57458  0.204976
8.75355  2.95489  0.218299
8.79732  3.05072  0.222829
8.84130  3.46954  0.237111
8.88551  2.78946  0.211191
8.92994  2.86883  0.213536
8.97459  2.75132  0.207219
9.01946  2.91158  0.215181
9.06456  3.02621  0.216398
9.10988  3.08785  0.217984
9.15543  3.10105  0.218275
9.20121  3.22342  0.222285
9.24721  3.13500  0.218510
9.29345  2.68141  0.201568
9.33992  2.98938  0.212328
9.38662  2.90911  0.207896
9.43355  2.94480  0.209029
9.48072  2.70405  0.198087
9.52812  2.68207  0.197649
9.57576  2.94826  0.208089
9.62364  2.85801  0.204401
9.67176  2.41970  0.185504
9.72012  2.68036  0.195974
9.76872  3.00083  0.206510
9.81756  2.78636  0.196458
9.86665  2.44231  0.183104
9.91598  2.54938  0.187035
9.96556  2.82492  0.198510
10.0154  2.73994  0.193159
10.0655  2.78395  0.195900
10.1158  2.53197  0.185306
10.1664  2.32943  0.174661
10.2172  2.78385  0.191371
10.2683  2.64510  0.187011
10.3196  2.76561  0.192196
10.3712  2.67744  0.188502
10.4231  2.77371  0.190943
10.4752  2.59595  0.182293
10.5276  2.72307  0.186994
10.5802  3.07870  0.201069
10.6331  2.93258  0.193240
10.6863  2.72572  0.186424
10.7397  2.74858  0.186682
10.7934  2.62310  0.182248
10.8474  2.98983  0.193897
10.9016  3.04312  0.194514
10.9561  3.08959  0.196070
11.0109  2.57659  0.177933
11.0660  2.73471  0.182875
11.1213  2.81135  0.184887
11.1769  2.76993  0.184083
11.2328  2.85731  0.187138
11.2889  3.05153  0.193530
11.3454  2.80468  0.183964
11.4021  2.77647  0.182560
11.4591  2.87337  0.184163
11.5164  2.90556  0.184375
11.5740  2.73226  0.177698
11.6319  2.72056  0.179389
11.6900  2.64362  0.175595
11.7485  2.98854  0.186291
11.8072  2.64401  0.173567
11.8663  2.71254  0.175272
11.9256  3.04244  0.184950
11.9852  3.07326  0.186124
12.0452  2.98109  0.182423
12.1054  2.75524  0.175008
12.1659  2.77822  0.174769
12.2267  2.80119  0.174558
12.2879  2.98297  0.180751
12.3493  3.11189  0.183203
12.4111  3.41961  0.193551
12.4731  2.93439  0.178164
12.5355  2.83172  0.174506
12.5982  3.20515  0.184454
12.6611  3.09730  0.180821
12.7244  3.53326  0.193768
12.7881  3.29013  0.186623
12.8520  3.07637  0.179299
12.9163  3.04080  0.177789
12.9809  3.07974  0.178465
13.0458  3.46640  0.189254
13.1110  3.12706  0.179776
13.1765  3.06454  0.177778
13.2424  3.16792  0.178788
13.3086  3.39054  0.185638
13.3752  2.98563  0.173292
13.4421  3.18997  0.178386
13.5093  3.11881  0.175521
13.5768  3.25757  0.179695
13.6447  3.61812  0.189377
13.7129  3.18720  0.177314
13.7815  3.47431  0.183896
13.8504  2.99530  0.169902
13.9196  3.09121  0.172700
13.9892  2.86081  0.165309
14.0592  3.32900  0.178726
14.1295  2.96519  0.168225
14.2001  2.93008  0.167146
14.2711  2.79102  0.161296
14.3425  2.97822  0.167132
14.4142  2.96547  0.165891
14.4863  2.74463  0.159571
14.5587  2.85390  0.162032
14.6315  2.74374  0.158819
14.7047  2.71668  0.157455
14.7782  2.96221  0.163943
14.8521  2.75763  0.158387
14.9263  2.82425  0.160111
15.0010  2.82264  0.158568
15.0760  2.67235  0.153361
15.1513  2.63871  0.153502
15.2271  2.82084  0.156898
15.3032  2.65441  0.152009
15.3798  2.62977  0.150360
15.4566  2.75332  0.154965
15.5339  2.90303  0.158412
15.6116  2.69473  0.151794
15.6897  2.98492  0.160089
15.7681  2.63338  0.150028
15.8469  2.73078  0.152162
15.9262  2.43371  0.143406
16.0058  2.83388  0.153780
16.0858  2.80611  0.152860
16.1663  2.83898  0.153027
16.2471  2.70623  0.149423
16.3283  2.66184  0.147777
16.4100  2.61982  0.146505
16.4920  2.95472  0.155333
16.5745  2.74239  0.148045
16.6574  2.85811  0.151278
16.7407  2.65982  0.145533
16.8244  2.83591  0.149962
16.9085  2.71396  0.146687
16.9930  2.81461  0.148847
17.0780  2.54514  0.140536
17.1634  2.83013  0.148627
17.2492  2.64936  0.142962
17.3354  2.70579  0.144212
17.4221  2.73971  0.144369
17.5092  2.70232  0.143867
17.5968  2.64559  0.141255
17.6848  2.75667  0.144540
17.7732  2.57680  0.138800
17.8620  2.74435  0.143096
17.9514  2.69661  0.140901
18.0411  2.83064  0.145087
18.1313  2.80188  0.143827
18.2220  2.79014  0.143727
18.3131  2.93433  0.146608
18.4047  2.50845  0.135301
18.4967  2.75546  0.140550
18.5892  2.63951  0.137685
18.6821  2.63313  0.137517
18.7755  2.59124  0.135860
18.8694  2.82235  0.141229
18.9637  2.61439  0.134759
19.0586  2.93122  0.143194
19.1539  2.62515  0.134933
19.2496  2.66303  0.136076
19.3459  2.72501  0.138416
19.4426  2.35958  0.127533
19.5398  2.65228  0.135048
19.6375  2.68251  0.134962
19.7357  2.50393  0.129993
19.8344  2.53182  0.130732
19.9335  2.68477  0.133952
20.0332  2.62974  0.132638
20.1334  2.84455  0.137990
20.2341  2.69618  0.133898
20.3352  2.81976  0.137465
20.4369  2.64516  0.132104
20.5391  2.78264  0.135377
20.6418  2.67450  0.132239
20.7450  2.89397  0.137687
20.8487  2.71615  0.132753
20.9530  2.74582  0.133738
21.0577  2.85184  0.135377
21.1630  2.69204  0.131254
21.2688  3.01304  0.138493
21.3752  2.98033  0.136902
21.4820  2.75499  0.131899
21.5895  2.86436  0.134347
21.6974  2.95554  0.136732
21.8059  3.05917  0.139008
21.9149  2.84680  0.133219
22.0245  2.96793  0.135366
22.1346  2.78723  0.131827
22.2453  2.84787  0.132816
22.3565  2.97118  0.135228
22.4683  2.75495  0.129528
22.5806  3.00606  0.135674
22.6935  2.62771  0.126315
22.8070  2.99305  0.134516
22.9210  3.01932  0.134821
23.0357  2.89582  0.131495
23.1508  2.97867  0.132808
23.2666  2.99072  0.133837
23.3829  2.78153  0.127959
23.4998  3.01364  0.133126
23.6173  2.93949  0.130930
23.7354  2.97905  0.131675
23.8541  3.24393  0.137304
23.9734  3.03532  0.132077
24.0932  3.06647  0.132774
24.2137  3.21726  0.136038
24.3348  3.02495  0.131568
24.4564  3.11041  0.133262
24.5787  2.85258  0.127294
24.7016  3.47694  0.140523
24.8251  3.22988  0.134971
24.9493  3.28040  0.135723
25.0740  3.07018  0.131044
25.1994  3.17385  0.133202
25.3254  3.25751  0.134315
25.4520  3.28045  0.134208
25.5793  3.28382  0.134224
25.7071  3.34189  0.134552
25.8357  3.66161  0.141502
25.9649  3.26201  0.133533
26.0947  3.25421  0.132693
26.2252  3.13148  0.129745
26.3563  3.13695  0.130158
26.4881  3.32972  0.133899
26.6205  3.40071  0.134783
26.7536  3.09816  0.128522
26.8874  3.20098  0.130295
27.0218  3.26885  0.131688
27.1569  3.37445  0.133732
27.2927  3.02742  0.126310
27.4292  3.16671  0.129084
27.5663  3.06840  0.126790
27.7042  2.95461  0.124356
27.8427  3.31485  0.131617
27.9819  3.13492  0.127468
28.1218  3.14138  0.127341
28.2624  2.99456  0.123874
28.4037  2.97802  0.124031
28.5457  3.07674  0.125345
28.6885  2.94878  0.122253
28.8319  3.11588  0.125761
28.9761  2.97953  0.122458
29.1209  2.72214  0.117175
29.2666  2.88971  0.120225
29.4129  2.81929  0.118479
29.5599  3.12161  0.124863
29.7078  2.77441  0.117165
29.8563  2.72793  0.116220
30.0056  3.11129  0.124324
30.1556  2.97864  0.120480
30.3064  2.96500  0.121230
30.4579  2.98082  0.120742
30.6102  2.90356  0.119344
30.7632  2.73677  0.115767
30.9171  2.94474  0.119595
31.0716  2.94042  0.119354
31.2270  2.86329  0.117144
31.3831  3.00678  0.120269
31.5401  2.88315  0.117371
31.6978  2.94139  0.118665
31.8562  2.98255  0.119289
32.0155  3.03822  0.120488
32.1756  3.01521  0.119416
32.3365  2.71925  0.113129
32.4982  2.83323  0.115340
32.6607  2.73970  0.113598
32.8240  2.62741  0.110947
32.9881  2.80496  0.114784
33.1530  2.64153  0.110862
33.3188  2.61387  0.110354
33.4854  2.66213  0.111332
33.6528  2.56685  0.108797
33.8211  2.61702  0.110113
33.9902  2.70546  0.111959
34.1601  2.53258  0.107479
34.3309  2.82976  0.113727
34.5026  2.59051  0.108455
34.6751  2.42949  0.104708
34.8485  2.68746  0.110915
35.0227  2.49652  0.106472
35.1978  2.64462  0.109148
35.3738  2.72639  0.110574
35.5507  2.56995  0.107416
35.7284  2.63326  0.108750
35.9071  2.50658  0.106443
36.0866  2.51406  0.106064
36.2670  2.51558  0.106084
36.4484  2.40080  0.103364
36.6306  2.38206  0.102801
36.8138  2.48471  0.104875
36.9978  2.39372  0.103382
37.1828  2.47503  0.104542
37.3687  2.56231  0.106133
37.5556  2.49941  0.104684
37.7434  2.65189  0.107991
37.9321  2.59701  0.106462
38.1217  2.43371  0.102993
38.3124  2.64907  0.107234
38.5039  2.81543  0.110846
38.6964  2.59171  0.106160
38.8899  2.76329  0.109242
39.0844  2.66576  0.107249
39.2798  2.79206  0.109979
39.4762  2.80226  0.109443
39.6736  2.97803  0.113274
39.8719  2.89100  0.111726
40.0713  2.67431  0.107539
40.2717  2.72546  0.108057
40.4730  2.84161  0.110088
40.6754  2.88200  0.111572
40.8788  2.91451  0.111548
41.0831  3.06046  0.114116
41.2886  2.80071  0.109268
41.4950  2.86776  0.110459
41.7025  2.97041  0.112669
41.9110  3.09793  0.115109
42.1206  2.73527  0.108029
42.3312  2.83295  0.109492
42.5428  2.86482  0.110124
42.7555  2.90034  0.110831
42.9693  2.74971  0.107527
43.1842  2.91563  0.111232
43.4001  2.79153  0.108189
43.6171  2.77871  0.107974
43.8352  2.69773  0.106155
44.0543  2.60668  0.104160
44.2746  2.61963  0.104450
44.4960  2.77985  0.107768
44.7185  2.71136  0.106376
44.9421  2.65467  0.105492
45.1668  2.72396  0.106163
45.3926  2.64691  0.104555
45.6196  2.77108  0.107398
45.8477  2.64572  0.105227
46.0769  2.60034  0.103786
46.3073  2.80570  0.107908
46.5388  2.66766  0.105261
46.7715  2.76936  0.106775
47.0054  2.63469  0.104478
47.2404  2.72286  0.106248
47.4766  2.57665  0.103146
47.7140  2.72170  0.105623
47.9525  2.71485  0.105641
48.1923  2.57109  0.102761
48.4333  2.59020  0.103348
48.6754  2.42233  0.0996390
48.9188  2.70150  0.105377
49.1634  2.48407  0.101118
49.4092  2.54228  0.102129
49.6563  2.56961  0.102850
49.9045  2.37111  0.0987401
50.1541  2.57920  0.102453
50.4048  2.33123  0.0976343
50.6569  2.38289  0.0987889
50.9102  2.42486  0.0998250
51.1647  2.42924  0.0996500
51.4205  2.42930  0.0995589
51.6776  2.45296  0.100112
51.9360  2.51427  0.101266
52.1957  2.56542  0.102497
52.4567  2.40891  0.0991234
52.7190  2.35421  0.0980965
52.9826  2.48936  0.101094
53.2475  2.50642  0.101452
53.5137  2.46280  0.100377
53.7813  2.35237  0.0977957
54.0502  2.42250  0.0994039
54.3204  2.19366  0.0942644
54.5920  2.54564  0.101879
54.8650  2.51487  0.101827
55.1393  2.39770  0.0988685
55.4150  2.58135  0.102890
55.6921  2.54999  0.101817
55.9706  2.67824  0.104675
56.2504  2.47238  0.100517
56.5317  2.58605  0.103121
56.8143  2.63588  0.104039
57.0984  2.59182  0.103306
57.3839  2.63547  0.103953
57.6708  2.63592  0.103933
57.9592  2.82572  0.108129
58.2490  2.70700  0.105636
58.5402  2.58431  0.103209
58.8329  2.68024  0.105191
59.1271  2.59628  0.103108
59.4227  2.61500  0.103705
59.7198  2.49001  0.101143
60.0184  2.61561  0.103522
60.3185  2.87994  0.109239
60.6201  2.65886  0.104721
60.9232  2.68282  0.105309
61.2278  2.69871  0.105919
61.5340  2.67500  0.105310
61.8416  2.75579  0.106502
62.1508  2.87159  0.109376
62.4616  2.54701  0.102607
62.7739  2.66761  0.105470
63.0878  2.67930  0.105881
63.4032  2.75021  0.107083
63.7202  2.70482  0.106083
64.0388  2.62359  0.104574
64.3590  2.81740  0.108501
64.6808  3.09289  0.114081
65.0042  2.95482  0.111176
65.3292  2.93772  0.110818
65.6559  2.73742  0.106988
65.9841  2.88505  0.110291
66.3141  2.99297  0.112498
66.6456  2.92840  0.111395
66.9789  2.62130  0.105264
67.3138  2.70955  0.107059
67.6503  2.88731  0.110648
67.9886  2.65000  0.106161
68.3285  2.95225  0.111803
68.6702  2.72948  0.107596
69.0135  2.86480  0.110623
69.3586  2.97831  0.112600
69.7054  2.96551  0.112898
70.0539  2.91468  0.111333
70.4042  2.86271  0.111108
70.7562  3.14137  0.116510
71.1100  2.97203  0.113523
71.4655  2.78566  0.109835
71.8229  2.74696  0.108551
72.1820  2.71848  0.108581
72.5429  2.91195  0.112448
72.9056  2.80490  0.110357
73.2701  2.73599  0.109517
73.6365  2.78616  0.110292
74.0047  2.98958  0.114404
74.3747  2.91339  0.113152
74.7466  2.91343  0.113503
75.1203  2.83553  0.111178
75.4959  2.67333  0.108842
75.8734  3.03574  0.115615
76.2527  3.05653  0.116305
76.6340  2.88763  0.113417
77.0172  2.83309  0.112476
77.4023  2.99036  0.115470
77.7893  2.93169  0.114395
78.1782  3.11461  0.118284
78.5691  3.07285  0.117788
78.9620  3.09769  0.118097
79.3568  2.79019  0.112145
79.7535  3.17148  0.119960
80.1523  3.29458  0.122236
80.5531  3.10280  0.118998
80.9558  3.03814  0.117367
81.3606  3.05744  0.118251
81.7674  3.12828  0.119253
82.1763  2.87640  0.114761
82.5871  2.86047  0.114207
83.0001  2.96001  0.116647
83.4151  2.97027  0.117060
83.8321  3.11475  0.119936
84.2513  3.13987  0.120741
84.6726  3.28922  0.123991
85.0959  3.20529  0.122097
85.5214  3.31051  0.124824
85.9490  3.18271  0.122597
86.3788  3.21292  0.122588
86.8106  3.04284  0.119295
87.2447  3.22970  0.123653
87.6809  3.31371  0.124949
88.1193  3.53856  0.129847
88.5599  3.46328  0.128082
89.0027  3.38518  0.127334
89.4477  3.27548  0.124953
89.8950  3.24480  0.124901
90.3445  3.31124  0.126947
90.7962  3.34647  0.126871
91.2502  3.22364  0.124836
91.7064  3.36822  0.127870
92.1649  3.50312  0.130529
92.6258  3.33054  0.127557
93.0889  3.53005  0.131350
93.5543  3.50389  0.131774
94.0221  3.46248  0.130479
94.4922  3.37564  0.128775
94.9647  3.36572  0.129125
95.4395  3.68477  0.135971
95.9167  3.56229  0.133763
96.3963  3.65161  0.135385
96.8783  3.75633  0.137640
97.3627  3.60075  0.134909
97.8495  3.69978  0.136885
98.3387  3.96125  0.141606
98.8304  4.18172  0.145966
99.3246  4.02267  0.143386
99.8212  4.20747  0.147029
100.320  4.39997  0.150097
100.822  4.34367  0.149040
101.326  4.48475  0.152533
101.833  4.62938  0.154891
102.342  4.60993  0.154443
102.854  4.65792  0.155756
103.368  4.90416  0.160436
103.885  4.81806  0.158509
104.404  4.96763  0.161868
104.926  5.03779  0.162792
105.451  5.36204  0.169059
105.978  5.35426  0.168548
106.508  5.45578  0.170466
107.040  5.37541  0.169596
107.576  5.22956  0.167371
108.113  5.40920  0.170546
108.654  5.40491  0.170822
109.197  5.24663  0.168354
109.743  5.30735  0.170062
110.292  5.21384  0.168718
110.843  5.15238  0.168529
111.398  5.16624  0.168619
111.955  5.48361  0.173890
112.514  5.20895  0.169507
113.077  5.02519  0.166872
113.642  5.03919  0.167571
114.211  4.83788  0.164729
114.782  5.02310  0.168341
115.356  5.13815  0.169851
115.932  4.72202  0.162721
116.512  4.88377  0.166194
117.095  4.78428  0.164696
117.680  4.72558  0.163520
118.268  4.77111  0.165170
118.860  4.67560  0.162802
119.454  4.79957  0.166341
120.051  4.91640  0.168289
120.652  4.34565  0.159008
121.255  4.94799  0.169759
121.861  4.90131  0.169261
122.470  4.54702  0.162743
123.083  4.61529  0.164540
123.698  4.66932  0.165631
124.317  4.66952  0.166607
124.938  4.77525  0.167950
125.563  4.68851  0.166642
126.191  4.75616  0.168071
126.822  4.76650  0.168950
127.456  4.91065  0.172231
128.093  4.92618  0.172199
128.734  5.05730  0.175092
129.377  4.91907  0.172679
130.024  4.79518  0.170184
130.674  5.15728  0.177635
131.328  4.93988  0.173997
131.984  4.93520  0.173736
132.644  5.01009  0.175087
133.307  5.09506  0.177518
133.974  5.23292  0.180221
134.644  5.15777  0.178950
135.317  5.10228  0.178301
135.994  5.45179  0.185148
136.674  5.36920  0.183780
137.357  5.09542  0.178349
138.044  5.38035  0.183953
138.734  5.16746  0.180013
139.428  5.10849  0.179521
140.125  5.43336  0.185865
140.825  5.69965  0.189858
141.530  5.46412  0.186444
142.237  5.42442  0.186350
142.948  5.61387  0.190290
143.663  5.55302  0.189294
144.381  5.65288  0.191416
145.103  5.53466  0.189145
145.829  5.67409  0.192032
146.558  5.81760  0.194791
147.291  5.72602  0.193546
148.027  6.07179  0.199317
148.767  5.88513  0.197252
149.511  6.33641  0.204854
150.259  6.49752  0.207374
151.010  6.20808  0.201888
151.765  6.53942  0.207808
152.524  7.19530  0.218913
153.287  7.51409  0.224507
154.053  7.28128  0.220792
154.823  7.30145  0.220665
155.597  7.53865  0.225141
156.375  7.92789  0.231589
157.157  7.92967  0.231867
157.943  8.13452  0.234642
158.733  8.13553  0.235408
159.526  7.75733  0.230762
160.324  7.76548  0.231785
161.126  7.41819  0.225892
161.931  7.54327  0.228456
162.741  7.71402  0.231144
163.555  7.32873  0.225616
164.372  7.43925  0.227838
165.194  7.06850  0.221677
166.020  6.66520  0.215288
166.850  5.99883  0.205059
167.685  6.23014  0.209546
168.523  6.14570  0.207950
169.366  6.02170  0.206225
170.212  5.88241  0.203350
171.064  6.14482  0.209062
171.919  5.81528  0.203593
172.778  6.28469  0.211978
173.642  6.09923  0.208825
174.511  5.80839  0.203235
175.383  6.29162  0.212052
176.260  6.22321  0.211463
177.141  5.98289  0.207595
178.027  5.85399  0.205937
178.917  6.25482  0.212698
179.812  6.06464  0.209502
180.711  5.90656  0.206840
181.614  6.53545  0.218863
182.522  6.02270  0.210404
183.435  6.06376  0.211266
184.352  5.89364  0.208559
185.274  6.10184  0.212109
186.200  5.42140  0.199571
187.131  5.68389  0.205397
188.067  5.44669  0.201191
189.007  5.78951  0.207515
189.952  5.33403  0.198955
190.902  5.66001  0.206019
191.857  5.37748  0.200276
192.816  5.40250  0.200938
193.780  5.33602  0.200610
194.749  5.42620  0.202152
195.723  5.03871  0.195021
196.701  5.08276  0.196085
197.685  5.21094  0.198559
198.673  5.35258  0.201891
199.667  5.25323  0.200334
200.665  5.19404  0.198539
201.668  5.08734  0.197844
202.677  5.22489  0.200331
203.690  5.24631  0.201025
204.708  5.20731  0.199955
205.732  5.37760  0.204005
206.761  5.55855  0.206403
207.794  5.19760  0.200690
208.833  5.47725  0.206634
209.878  5.17121  0.200021
210.927  5.06420  0.198560
211.982  5.20264  0.201341
213.042  5.17625  0.201241
214.107  5.24638  0.203243
215.177  5.36810  0.205979
216.253  5.09534  0.200626
217.334  5.37475  0.206655
218.421  4.92267  0.197507
219.513  5.01720  0.199920
220.611  4.99019  0.199247
221.714  5.27499  0.204952
222.822  5.12591  0.202542
223.936  4.83635  0.196697
225.056  5.21652  0.204474
226.181  4.94105  0.199167
227.312  5.14839  0.203872
228.449  4.99323  0.200302
229.591  4.93164  0.199305
230.739  4.85967  0.199216
231.893  5.06040  0.203295
233.052  4.99403  0.201393
234.218  5.37441  0.209763
235.389  5.27794  0.207625
236.566  5.15077  0.204932
237.748  5.00203  0.202519
238.937  4.98119  0.202252
240.132  5.08141  0.204498
241.332  5.14198  0.205012
242.539  5.23909  0.208317
243.752  5.35572  0.210138
244.971  5.14660  0.206041
246.195  5.04768  0.204034
247.426  5.21038  0.208307
248.664  5.40951  0.212089
249.907  5.11578  0.206802
251.156  5.14389  0.208079
252.412  5.07652  0.205685
253.674  5.28464  0.211079
254.943  5.58054  0.216437
256.217  5.28941  0.210572
257.498  5.30424  0.211857
258.786  5.47950  0.215390
260.080  5.53836  0.216857
261.380  5.76023  0.221466
262.687  5.45002  0.215864
264.001  5.64259  0.218981
265.321  5.54359  0.217172
266.647  5.91855  0.225545
267.980  5.50149  0.217253
269.320  5.49158  0.217280
270.667  5.77162  0.223257
272.020  5.37326  0.214893
273.380  5.65202  0.221592
274.747  5.43829  0.215871
276.121  6.06121  0.228723
277.502  5.89613  0.225614
278.889  5.54768  0.219518
280.284  5.84127  0.225548
281.685  5.39759  0.216995
283.093  5.78314  0.224909
284.509  5.49483  0.218547
285.931  5.73975  0.224953
287.361  5.49951  0.220986
288.798  5.77396  0.224738
290.242  5.96553  0.229021
291.693  6.02599  0.230645
293.152  5.72169  0.224447
294.617  5.95547  0.229827
296.090  6.25839  0.236056
297.571  5.77714  0.225935
299.059  5.68445  0.224872
300.554  5.90805  0.230334
302.057  5.97706  0.230938
303.567  6.20063  0.235282
305.085  6.29513  0.237622
306.610  6.07367  0.233930
308.143  6.17019  0.236206
309.684  6.00787  0.233492
311.232  5.91806  0.231252
312.789  5.87174  0.230949
314.353  6.09579  0.235117
315.924  5.84515  0.230145
317.504  5.59407  0.225170
319.091  5.96761  0.232814
320.687  5.85506  0.230630
322.290  5.79284  0.230091
323.902  5.83459  0.230726
325.521  5.70017  0.228460
327.149  5.92115  0.232287
328.785  6.17644  0.237728
330.429  5.55316  0.226360
332.081  5.76949  0.231063
333.741  5.62260  0.227192
335.410  5.92610  0.234720
337.087  5.86752  0.232895
338.772  5.76759  0.230805
340.466  5.81824  0.232138
342.168  5.58431  0.227592
343.879  5.39516  0.224029
345.599  5.56355  0.227875
347.327  5.99323  0.236478
349.063  5.10793  0.218450
350.809  5.50492  0.227348
352.563  5.76935  0.232633
354.326  5.44194  0.226594
356.097  5.60544  0.229604
357.878  5.54954  0.229298
359.667  5.69635  0.232400
361.465  5.86225  0.235634
363.273  5.70664  0.233404
365.089  5.67867  0.232093
366.915  5.66589  0.232334
368.749  5.48005  0.227502
370.593  5.37406  0.226442
372.446  5.36659  0.226513
374.308  5.48675  0.228666
376.180  5.42708  0.227797
378.060  5.31497  0.225715
379.951  5.84160  0.237338
381.851  5.72792  0.235642
383.760  5.58709  0.232870
385.679  5.44383  0.229396
387.607  5.46883  0.231015
389.545  5.50106  0.232605
391.493  5.66871  0.235807
393.450  5.94986  0.240970
395.417  5.58222  0.234044
397.395  5.64060  0.235676
399.382  5.22465  0.226650
401.378  5.95509  0.243186
403.385  6.01228  0.243862
405.402  5.88344  0.241235
407.429  5.95468  0.242376
409.466  5.60597  0.236094
411.514  5.55665  0.234381
413.571  5.98821  0.245446
415.639  5.34263  0.231284
417.717  5.67399  0.238135
419.806  5.48877  0.233642
421.905  5.93761  0.244707
424.014  5.83703  0.242274
426.135  5.90438  0.243288
428.265  6.20339  0.250668
430.407  6.26097  0.251626
432.559  5.58809  0.237870
434.721  5.83125  0.244067
436.895  5.71954  0.242281
439.079  5.77363  0.243326
441.275  6.36929  0.255568
443.481  6.38288  0.256275
445.699  6.29082  0.254983
447.927  5.47951  0.238240
450.167  5.75201  0.244024
452.418  6.32508  0.256148
454.680  6.19041  0.253458
456.953  5.70486  0.243273
459.238  5.77632  0.245817
461.534  5.89271  0.249410
463.842  5.91100  0.249521
466.161  6.17787  0.255372
468.492  6.03427  0.252288
470.834  6.10981  0.254459
473.188  5.89611  0.250028
475.554  5.70522  0.245504
477.932  6.08838  0.255463
480.322  5.85284  0.250435
482.723  5.81407  0.249572
485.137  6.42196  0.262584
487.563  6.10617  0.256371
490.000  6.48870  0.264754
492.450  6.06403  0.256461
494.913  6.06057  0.257921
497.387  6.18616  0.259984
499.874  6.11271  1.14713
500.000  6.33097  0.746322
