2.00000  0.504825  0.111126
2.01000  0.345705  0.0945828
2.02005  0.124886  0.0559774
2.03015  0.445578  0.105428
2.04030  0.479829  0.107812
2.05050  0.338413  0.0918310
2.06076  0.529530  0.113889
2.07106  0.364764  0.0940765
2.08141  0.234699  0.0763420
2.09182  0.430021  0.103076
2.10228  0.403544  0.0999765
2.11279  0.337490  0.0899490
2.12336  0.526151  0.113107
2.13397  0.545402  0.112809
2.14464  0.382478  0.0947728
2.15537  0.255367  0.0769789
2.16614  0.461018  0.103225
2.17697  0.287065  0.0809801
2.18786  0.432331  0.100013
2.19880  0.518642  0.108539
2.20979  0.454443  0.101127
2.22084  0.304288  0.0823275
2.23194  0.221640  0.0706506
2.24310  0.383155  0.0925672
2.25432  0.411333  0.0959278
2.26559  0.482588  0.103923
2.27692  0.338429  0.0853846
2.28830  0.409066  0.0945699
2.29974  0.386316  0.0922656
2.31124  0.332172  0.0841103
2.32280  0.331911  0.0844545
2.33441  0.459092  0.0997500
2.34609  0.438170  0.0958538
2.35782  0.379827  0.0890931
2.36960  0.364361  0.0873538
2.38145  0.225263  0.0696807
2.39336  0.272433  0.0763392
2.40533  0.305469  0.0795876
2.41735  0.274785  0.0749191
2.42944  0.271987  0.0748534
2.44159  0.218914  0.0673501
2.45380  0.400826  0.0895049
2.46606  0.381964  0.0865607
2.47839  0.282986  0.0747235
2.49079  0.342269  0.0821845
2.50324  0.287718  0.0754543
2.51576  0.228826  0.0672718
2.52834  0.362534  0.0827899
2.54098  0.309296  0.0765899
2.55368  0.346223  0.0800016
2.56645  0.309080  0.0767424
2.57928  0.231243  0.0659208
2.59218  0.252208  0.0688626
2.60514  0.327459  0.0786016
2.61817  0.297081  0.0736987
2.63126  0.241966  0.0674174
2.64441  0.330020  0.0786505
2.65763  0.512000  0.0963094
2.67092  0.439646  0.0893033
2.68428  0.300599  0.0744513
2.69770  0.233194  0.0646876
2.71119  0.314341  0.0758635
2.72474  0.272917  0.0695773
2.73837  0.330518  0.0763908
2.75206  0.285503  0.0712338
2.76582  0.202429  0.0596206
2.77965  0.446709  0.0881792
2.79355  0.293451  0.0714219
2.80751  0.335356  0.0765273
2.82155  0.238414  0.0643782
2.83566  0.324562  0.0746602
2.84984  0.409494  0.0826054
2.86409  0.437158  0.0861338
2.87841  0.239768  0.0645432
2.89280  0.156913  0.0510416
2.90726  0.224806  0.0609892
2.92180  0.247126  0.0642889
2.93641  0.246528  0.0634790
2.95109  0.190368  0.0551689
2.96585  0.309816  0.0708261
2.98068  0.161285  0.0503694
2.99558  0.293993  0.0683975
3.01056  0.258025  0.0638676
3.02561  0.312057  0.0703699
3.04074  0.227308  0.0591533
3.05594  0.239525  0.0609140
3.07122  0.236283  0.0601886
3.08658  0.274578  0.0647044
3.10201  0.129204  0.0441777
3.11752  0.202714  0.0556128
3.13311  0.240130  0.0604902
3.14877  0.233266  0.0594095
3.16452  0.296075  0.0669396
3.18034  0.334370  0.0700589
3.19624  0.222142  0.0573770
3.21222  0.251434  0.0608757
3.22828  0.236128  0.0590348
3.24443  0.334692  0.0697956
3.26065  0.187302  0.0514727
3.27695  0.256842  0.0604779
3.29334  0.185440  0.0514844
3.30980  0.168158  0.0492689
3.32635  0.312226  0.0663392
3.34298  0.342340  0.0685004
3.35970  0.184956  0.0504460
3.37650  0.239680  0.0568958
3.39338  0.191681  0.0507637
3.41035  0.252355  0.0582226
3.42740  0.223583  0.0543960
3.44453  0.133414  0.0413545
3.46176  0.261119  0.0585097
3.47907  0.279719  0.0598665
3.49646  0.100133  0.0361328
3.51394  0.249317  0.0565091
3.53151  0.130585  0.0408916
3.54917  0.182350  0.0484970
3.56692  0.213748  0.0516976
3.58475  0.272467  0.0581364
3.60268  0.193265  0.0492064
3.62069  0.202365  0.0501743
3.63879  0.278005  0.0594182
3.65699  0.210291  0.0507491
3.67527  0.202737  0.0496982
3.69365  0.250567  0.0548618
3.71212  0.278006  0.0577995
3.73068  0.198540  0.0487741
3.74933  0.137048  0.0403620
3.76808  0.304577  0.0599727
3.78692  0.135629  0.0397085
3.80585  0.142862  0.0403474
3.82488  0.209224  0.0489948
3.84400  0.270119  0.0562856
3.86322  0.181931  0.0455017
3.88254  0.201120  0.0473867
3.90195  0.274899  0.0563451
3.92146  0.255892  0.0539301
3.94107  0.260277  0.0543055
3.96078  0.203419  0.0472787
3.98058  0.192683  0.0458201
4.00048  0.194212  0.0461841
4.02049  0.250425  0.0520225
4.04059  0.262017  0.0530822
4.06079  0.270600  0.0543226
4.08109  0.176796  0.0435161
4.10150  0.151113  0.0399450
4.12201  0.255100  0.0520084
4.14262  0.286932  0.0548895
4.16333  0.258195  0.0519851
4.18415  0.206280  0.0463890
4.20507  0.274888  0.0534575
4.22609  0.233812  0.0490410
4.24722  0.285118  0.0541569
4.26846  0.199604  0.0447754
4.28980  0.363122  0.0607862
4.31125  0.281223  0.0536248
4.33281  0.245943  0.0495223
4.35447  0.271235  0.0518761
4.37624  0.239641  0.0487528
4.39812  0.203221  0.0448791
4.42012  0.237280  0.0482678
4.44222  0.266998  0.0511059
4.46443  0.277799  0.0519027
4.48675  0.356152  0.0586560
4.50918  0.232627  0.0474607
4.53173  0.261699  0.0497090
4.55439  0.207147  0.0443006
4.57716  0.248437  0.0485529
4.60005  0.278132  0.0509897
4.62305  0.257956  0.0487643
4.64616  0.243136  0.0474676
4.66939  0.199408  0.0425971
4.69274  0.228986  0.0460670
4.71620  0.190486  0.0417417
4.73978  0.198602  0.0422968
4.76348  0.195680  0.0416754
4.78730  0.249957  0.0474911
4.81124  0.244346  0.0465668
4.83529  0.212804  0.0433223
4.85947  0.206388  0.0422472
4.88377  0.321886  0.0529412
4.90818  0.284565  0.0494435
4.93273  0.297120  0.0504326
4.95739  0.240745  0.0450782
4.98218  0.221092  0.0431608
5.00709  0.258892  0.0465596
5.03212  0.259984  0.0466926
5.05728  0.280461  0.0481663
5.08257  0.271961  0.0475332
5.10798  0.148327  0.0347384
5.13352  0.204742  0.0407576
5.15919  0.211105  0.0413493
5.18499  0.176463  0.0378587
5.21091  0.237121  0.0436030
5.23697  0.297328  0.0486010
5.26315  0.284716  0.0474649
5.28947  0.174807  0.0367916
5.31591  0.188917  0.0381921
5.34249  0.249442  0.0435410
5.36920  0.257876  0.0443740
5.39605  0.217438  0.0409121
5.42303  0.184479  0.0375727
5.45015  0.212587  0.0399741
5.47740  0.206284  0.0393921
5.50478  0.224816  0.0409515
5.53231  0.246748  0.0426920
5.55997  0.295577  0.0468149
5.58777  0.276685  0.0451128
5.61571  0.244600  0.0423227
5.64379  0.290978  0.0459390
5.67201  0.292820  0.0459321
5.70037  0.285948  0.0452167
5.72887  0.263450  0.0433627
5.75751  0.252735  0.0424189
5.78630  0.218288  0.0392923
5.81523  0.223188  0.0395701
5.84431  0.231635  0.0401089
5.87353  0.302763  0.0457397
5.90290  0.225798  0.0395206
5.93241  0.268096  0.0430370
5.96207  0.276325  0.0434071
5.99188  0.224903  0.0390181
6.02184  0.264359  0.0420147
6.05195  0.250237  0.0410536
6.08221  0.213563  0.0375820
6.11262  0.286556  0.0432440
6.14319  0.223775  0.0381780
6.17390  0.317992  0.0455037
6.20477  0.249603  0.0403958
6.23580  0.209223  0.0367895
6.26697  0.265180  0.0412342
6.29831  0.263830  0.0410429
6.32980  0.293393  0.0431192
6.36145  0.279459  0.0420780
6.39326  0.228510  0.0379384
6.42522  0.175710  0.0333027
6.45735  0.205715  0.0356742
6.48964  0.233365  0.0379040
6.52209  0.242465  0.0385342
6.55470  0.252045  0.0391955
6.58747  0.264293  0.0401818
6.62041  0.223096  0.0366201
6.65351  0.193442  0.0341393
6.68678  0.194611  0.0339828
6.72021  0.208150  0.0351151
6.75381  0.207143  0.0348635
6.78758  0.224288  0.0363715
6.82152  0.237333  0.0372572
6.85563  0.193839  0.0334312
6.88990  0.226349  0.0361457
6.92435  0.163206  0.0305194
6.95898  0.242167  0.0371446
6.99377  0.208541  0.0343805
7.02874  0.182514  0.0319863
7.06388  0.241239  0.0367094
7.09920  0.199369  0.0333231
7.13470  0.195541  0.0328702
7.17037  0.171359  0.0306261
7.20622  0.198544  0.0328802
7.24226  0.139144  0.0275103
7.27847  0.154536  0.0288114
7.31486  0.141084  0.0274656
7.35143  0.155386  0.0287729
7.38819  0.205711  0.0329562
7.42513  0.134605  0.0264642
7.46226  0.139858  0.0270478
7.49957  0.140654  0.0270253
7.53707  0.208406  0.0328485
7.57475  0.184046  0.0308024
7.61263  0.132289  0.0260145
7.65069  0.189332  0.0309583
7.68894  0.241027  0.0348176
7.72739  0.183065  0.0302786
7.76602  0.146583  0.0271163
7.80485  0.191206  0.0309168
7.84388  0.150490  0.0272230
7.88310  0.141144  0.0262248
7.92251  0.178097  0.0294072
7.96213  0.141236  0.0261643
8.00194  0.186834  0.0300708
8.04195  0.158149  0.0274338
8.08216  0.172201  0.0286481
8.12257  0.194898  0.0303321
8.16318  0.143172  0.0259680
8.20400  0.129869  0.0247858
8.24502  0.137259  0.0252825
8.28624  0.147578  0.0260483
8.32767  0.142106  0.0255582
8.36931  0.160264  0.0269021
8.41116  0.0975522  0.0210022
8.45321  0.117437  0.0230816
8.49548  0.103292  0.0215236
8.53796  0.116496  0.0226946
8.58065  0.120451  0.0230942
8.62355  0.120672  0.0230888
8.66667  0.108269  0.0218009
8.71000  0.100016  0.0208415
8.75355  0.138478  0.0244406
8.79732  0.113686  0.0220742
8.84130  0.119277  0.0226513
8.88551  0.117986  0.0224038
8.92994  0.164090  0.0264130
8.97459  0.107368  0.0211783
9.01946  0.175007  0.0270412
9.06456  0.108187  0.0210470
9.10988  0.125531  0.0227146
9.15543  0.0957169  0.0198683
9.20121  0.126380  0.0227192
9.24721  0.122609  0.0223007
9.29345  0.135862  0.0233637
9.33992  0.0750855  0.0172850
9.38662  0.130441  0.0228013
9.43355  0.116806  0.0215554
9.48072  0.0870341  0.0185292
9.52812  0.147904  0.0240709
9.57576  0.128458  0.0224033
9.62364  0.118887  0.0214809
9.67176  0.130164  0.0224256
9.72012  0.116429  0.0211256
9.76872  0.152705  0.0240925
9.81756  0.163484  0.0249045
9.86665  0.108636  0.0202233
9.91598  0.116209  0.0208708
9.96556  0.131870  0.0222180
10.0154  0.127042  0.0217236
10.0655  0.150388  0.0235879
10.1158  0.157143  0.0240298
10.1664  0.163577  0.0244366
10.2172  0.118329  0.0207336
10.2683  0.139222  0.0224663
10.3196  0.0992685  0.0188938
10.3712  0.0995668  0.0188700
10.4231  0.141361  0.0224031
10.4752  0.151294  0.0231508
10.5276  0.141738  0.0223717
10.5802  0.167804  0.0242287
10.6331  0.114950  0.0200664
10.6863  0.137657  0.0219558
10.7397  0.176852  0.0247834
10.7934  0.134220  0.0215126
10.8474  0.150199  0.0226657
10.9016  0.178464  0.0246646
10.9561  0.153321  0.0228107
11.0109  0.143452  0.0219566
11.0660  0.136146  0.0213011
11.1213  0.135644  0.0211986
11.1769  0.136397  0.0212033
11.2328  0.135892  0.0211312
11.2889  0.142101  0.0215091
11.3454  0.156350  0.0225122
11.4021  0.0941470  0.0174262
11.4591  0.108740  0.0186996
11.5164  0.167015  0.0230355
11.5740  0.136766  0.0208507
11.6319  0.170507  0.0231087
11.6900  0.131579  0.0202958
11.7485  0.148386  0.0214847
11.8072  0.173880  0.0231159
11.8663  0.132313  0.0201290
11.9256  0.162828  0.0222755
11.9852  0.151977  0.0214573
12.0452  0.218344  0.0257193
12.1054  0.137448  0.0202916
12.1659  0.157081  0.0216812
12.2267  0.152472  0.0213129
12.2879  0.198814  0.0242731
12.3493  0.172353  0.0225414
12.4111  0.176742  0.0227410
12.4731  0.162826  0.0217773
12.5355  0.159448  0.0214862
12.5982  0.155123  0.0211579
12.6611  0.191319  0.0234292
12.7244  0.163498  0.0215649
12.7881  0.164877  0.0216480
12.8520  0.131150  0.0192406
12.9163  0.158199  0.0210936
12.9809  0.173650  0.0219672
13.0458  0.164598  0.0213916
13.1110  0.139843  0.0195840
13.1765  0.121190  0.0182128
13.2424  0.133254  0.0190558
13.3086  0.145078  0.0198553
13.3752  0.164016  0.0210121
13.4421  0.141437  0.0194950
13.5093  0.141120  0.0193837
13.5768  0.137898  0.0191022
13.6447  0.145859  0.0196150
13.7129  0.113748  0.0172718
13.7815  0.147737  0.0196104
13.8504  0.143186  0.0192592
13.9196  0.180650  0.0215569
13.9892  0.167890  0.0207561
14.0592  0.174529  0.0210934
14.1295  0.158826  0.0200534
14.2001  0.142063  0.0189422
14.2711  0.135676  0.0184603
14.3425  0.157746  0.0198251
14.4142  0.146656  0.0190872
14.4863  0.132719  0.0181266
14.5587  0.156146  0.0195929
14.6315  0.160675  0.0198546
14.7047  0.162011  0.0198728
14.7782  0.152033  0.0192082
14.8521  0.152838  0.0191835
14.9263  0.128364  0.0175688
15.0010  0.165184  0.0198386
15.0760  0.167737  0.0199678
15.1513  0.168264  0.0199533
15.2271  0.149403  0.0187293
15.3032  0.191000  0.0211274
15.3798  0.148979  0.0186127
15.4566  0.153121  0.0188148
15.5339  0.112327  0.0160916
15.6116  0.105572  0.0155610
15.6897  0.114986  0.0161790
15.7681  0.122300  0.0166447
15.8469  0.138146  0.0176504
15.9262  0.132009  0.0171995
16.0058  0.138974  0.0176065
16.0858  0.112465  0.0158188
16.1663  0.120869  0.0163492
16.2471  0.124810  0.0165676
16.3283  0.130795  0.0169092
16.4100  0.136970  0.0172535
16.4920  0.128192  0.0166588
16.5745  0.103483  0.0149440
16.6574  0.132808  0.0168851
16.7407  0.125354  0.0163543
16.8244  0.150478  0.0178950
16.9085  0.133244  0.0167740
16.9930  0.103202  0.0147408
17.0780  0.114481  0.0154703
17.1634  0.132187  0.0165816
17.2492  0.0855769  0.0133169
17.3354  0.131036  0.0164371
17.4221  0.121899  0.0158237
17.5092  0.0878909  0.0133976
17.5968  0.124125  0.0158947
17.6848  0.133520  0.0164300
17.7732  0.127447  0.0160219
17.8620  0.0877524  0.0132535
17.9514  0.123472  0.0156885
18.0411  0.105219  0.0144243
18.1313  0.135556  0.0163339
18.2220  0.123755  0.0155753
18.3131  0.111904  0.0147722
18.4047  0.123904  0.0155120
18.4967  0.122856  0.0154294
18.5892  0.0999112  0.0138563
18.6821  0.113287  0.0147259
18.7755  0.129678  0.0157071
18.8694  0.121364  0.0151700
18.9637  0.120255  0.0150603
19.0586  0.159022  0.0172719
19.1539  0.139906  0.0161811
19.2496  0.111689  0.0144126
19.3459  0.121164  0.0149785
19.4426  0.131968  0.0155996
19.5398  0.141707  0.0161316
19.6375  0.129347  0.0153789
19.7357  0.139830  0.0159483
19.8344  0.123182  0.0149311
19.9335  0.101260  0.0135140
20.0332  0.122042  0.0148002
20.1334  0.111261  0.0140998
20.2341  0.115029  0.0143090
20.3352  0.136975  0.0155744
20.4369  0.131890  0.0152569
20.5391  0.145379  0.0159831
20.6418  0.139713  0.0156331
20.7450  0.133068  0.0152311
20.8487  0.158498  0.0165851
20.9530  0.155192  0.0163726
21.0577  0.141797  0.0156199
21.1630  0.160785  0.0166113
21.2688  0.141201  0.0155309
21.3752  0.157633  0.0163795
21.4820  0.145795  0.0157278
21.5895  0.141973  0.0154845
21.6974  0.130398  0.0148139
21.8059  0.121575  0.0142832
21.9149  0.128065  0.0146254
22.0245  0.118851  0.0140537
22.1346  0.135854  0.0149912
22.2453  0.113992  0.0137093
22.3565  0.117867  0.0139111
22.4683  0.144718  0.0153754
22.5806  0.143189  0.0152697
22.6935  0.135581  0.0148315
22.8070  0.118327  0.0138245
22.9210  0.155518  0.0158228
23.0357  0.133835  0.0146369
23.1508  0.157700  0.0158550
23.2666  0.146473  0.0152504
23.3829  0.116165  0.0135476
23.4998  0.122059  0.0138642
23.6173  0.136210  0.0146179
23.7354  0.149584  0.0152827
23.8541  0.166220  0.0160759
23.9734  0.137812  0.0146060
24.0932  0.139184  0.0146479
24.2137  0.125543  0.0138852
24.3348  0.131652  0.0141892
24.4564  0.108376  0.0128514
24.5787  0.131186  0.0141051
24.7016  0.143994  0.0147484
24.8251  0.137420  0.0143793
24.9493  0.123716  0.0136277
25.0740  0.136088  0.0142496
25.1994  0.131909  0.0140096
25.3254  0.145848  0.0147001
25.4520  0.126020  0.0136374
25.5793  0.135788  0.0141310
25.7071  0.135821  0.0141064
25.8357  0.167365  0.0156322
25.9649  0.154183  0.0149763
26.0947  0.165865  0.0155088
26.2252  0.164629  0.0154260
26.3563  0.154192  0.0149032
26.4881  0.145682  0.0144623
26.6205  0.176556  0.0158969
26.7536  0.163717  0.0152835
26.8874  0.145413  0.0143767
27.0218  0.148913  0.0145245
27.1569  0.150337  0.0145632
27.2927  0.155522  0.0147851
27.4292  0.158386  0.0148921
27.5663  0.175117  0.0156320
27.7042  0.167862  0.0152776
27.8427  0.198116  0.0165718
27.9819  0.211488  0.0170860
28.1218  0.151227  0.0144253
28.2624  0.206714  0.0168332
28.4037  0.175780  0.0154986
28.5457  0.176584  0.0155054
28.6885  0.190187  0.0160650
28.8319  0.181909  0.0156913
28.9761  0.142145  0.0138480
29.1209  0.154032  0.0143931
29.2666  0.154957  0.0144135
29.4129  0.165605  0.0148816
29.5599  0.134912  0.0134119
29.7078  0.160294  0.0145979
29.8563  0.161091  0.0146149
30.0056  0.147894  0.0139848
30.1556  0.167899  0.0148789
30.3064  0.152056  0.0141379
30.4579  0.145060  0.0137885
30.6102  0.132701  0.0131650
30.7632  0.142309  0.0136138
30.9171  0.139490  0.0134598
31.0716  0.155728  0.0141978
31.2270  0.148027  0.0138210
31.3831  0.141425  0.0134906
31.5401  0.152759  0.0139997
31.6978  0.156562  0.0141536
31.8562  0.154068  0.0140213
32.0155  0.140387  0.0133651
32.1756  0.160930  0.0142895
32.3365  0.154820  0.0139937
32.4982  0.157827  0.0141088
32.6607  0.148132  0.0136499
32.8240  0.145246  0.0134960
32.9881  0.160497  0.0141681
33.1530  0.152762  0.0138029
33.3188  0.138782  0.0131378
33.4854  0.136158  0.0129947
33.6528  0.130257  0.0126933
33.8211  0.157862  0.0139560
33.9902  0.131575  0.0127229
34.1601  0.136748  0.0129544
34.3309  0.154091  0.0137350
34.5026  0.168340  0.0143372
34.6751  0.160470  0.0139815
34.8485  0.177437  0.0146832
35.0227  0.160587  0.0139506
35.1978  0.145528  0.0132644
35.3738  0.183603  0.0148797
35.5507  0.161332  0.0139349
35.7284  0.160548  0.0138840
35.9071  0.121482  0.0120638
36.0866  0.132171  0.0125718
36.2670  0.137414  0.0128049
36.4484  0.124316  0.0121657
36.6306  0.128700  0.0123677
36.8138  0.148732  0.0132810
36.9978  0.146229  0.0131528
37.1828  0.135027  0.0126244
37.3687  0.151929  0.0133749
37.5556  0.130238  0.0123704
37.7434  0.139794  0.0128012
37.9321  0.163303  0.0138210
38.1217  0.139265  0.0127498
38.3124  0.126748  0.0121494
38.5039  0.138705  0.0126969
38.6964  0.138585  0.0126835
38.8899  0.135322  0.0125235
39.0844  0.130233  0.0122748
39.2798  0.138791  0.0126594
39.4762  0.170595  0.0140254
39.6736  0.134305  0.0124364
39.8719  0.116982  0.0116010
40.0713  0.119684  0.0117218
40.2717  0.136908  0.0125292
40.4730  0.139410  0.0126370
40.6754  0.124746  0.0119427
40.8788  0.140845  0.0126819
41.0831  0.126652  0.0120148
41.2886  0.128672  0.0121005
41.4950  0.127942  0.0120586
41.7025  0.105754  0.0109545
41.9110  0.137375  0.0124765
42.1206  0.127697  0.0120199
42.3312  0.133258  0.0122717
42.5428  0.130726  0.0121420
42.7555  0.133816  0.0122758
42.9693  0.124594  0.0118401
43.1842  0.131701  0.0121634
43.4001  0.123921  0.0117935
43.6171  0.148955  0.0129190
43.8352  0.138694  0.0124552
44.0543  0.126759  0.0119002
44.2746  0.131207  0.0121025
44.4960  0.129645  0.0120217
44.7185  0.149900  0.0129195
44.9421  0.127876  0.0119274
45.1668  0.140590  0.0125014
45.3926  0.146896  0.0127730
45.6196  0.143437  0.0126145
45.8477  0.123589  0.0117083
46.0769  0.150655  0.0129239
46.3073  0.133785  0.0121704
46.5388  0.154395  0.0130637
46.7715  0.123884  0.0116966
47.0054  0.122668  0.0116328
47.2404  0.147818  0.0127697
47.4766  0.131902  0.0120584
47.7140  0.129219  0.0119261
47.9525  0.137447  0.0122971
48.1923  0.130635  0.0119851
48.4333  0.144671  0.0126070
48.6754  0.142470  0.0125113
48.9188  0.171170  0.0137070
49.1634  0.134367  0.0121453
49.4092  0.120010  0.0114731
49.6563  0.141985  0.0124759
49.9045  0.149975  0.0128214
50.1541  0.134687  0.0121478
50.4048  0.150708  0.0128443
50.6569  0.145193  0.0126083
50.9102  0.150894  0.0128515
51.1647  0.143483  0.0125334
51.4205  0.146338  0.0126498
51.6776  0.136380  0.0122120
51.9360  0.138423  0.0123018
52.1957  0.143821  0.0125353
52.4567  0.129302  0.0118893
52.7190  0.158571  0.0131601
52.9826  0.143184  0.0125034
53.2475  0.138511  0.0123023
53.5137  0.136882  0.0122268
53.7813  0.139456  0.0123398
54.0502  0.137082  0.0122282
54.3204  0.132115  0.0120075
54.5920  0.151265  0.0128494
54.8650  0.119421  0.0114143
55.1393  0.155636  0.0130355
55.4150  0.150064  0.0127958
55.6921  0.159448  0.0131929
55.9706  0.147625  0.0126957
56.2504  0.141237  0.0124184
56.5317  0.147755  0.0127040
56.8143  0.157681  0.0131233
57.0984  0.166731  0.0134966
57.3839  0.144157  0.0125455
57.6708  0.147496  0.0126985
57.9592  0.145808  0.0126280
58.2490  0.140822  0.0124164
58.5402  0.156732  0.0131019
58.8329  0.150951  0.0128690
59.1271  0.152971  0.0129588
59.4227  0.148892  0.0127851
59.7198  0.172417  0.0137647
60.0184  0.146943  0.0127129
60.3185  0.143552  0.0125659
60.6201  0.145306  0.0126567
60.9232  0.196408  0.0147153
61.2278  0.173649  0.0138397
61.5340  0.187486  0.0143942
61.8416  0.158307  0.0132316
62.1508  0.173317  0.0138502
62.4616  0.164160  0.0134876
62.7739  0.144987  0.0126759
63.0878  0.161075  0.0133725
63.4032  0.161123  0.0133788
63.7202  0.162222  0.0134346
64.0388  0.149847  0.0129139
64.3590  0.168738  0.0137182
64.6808  0.166064  0.0136092
65.0042  0.150797  0.0129827
65.3292  0.147069  0.0128296
65.6559  0.188648  0.0145366
65.9841  0.164754  0.0135975
66.3141  0.170467  0.0138395
66.6456  0.160003  0.0134111
66.9789  0.151736  0.0130764
67.3138  0.167116  0.0137317
67.6503  0.163552  0.0135950
67.9886  0.166316  0.0137264
68.3285  0.185977  0.0145244
68.6702  0.192188  0.0147805
69.0135  0.154006  0.0132296
69.3586  0.165494  0.0137349
69.7054  0.193974  0.0148823
70.0539  0.184300  0.0145163
70.4042  0.160302  0.0135523
70.7562  0.173080  0.0140945
71.1100  0.177427  0.0142828
71.4655  0.163185  0.0137090
71.8229  0.191288  0.0148537
72.1820  0.177981  0.0143394
72.5429  0.162416  0.0137151
72.9056  0.169518  0.0140203
73.2701  0.191567  0.0149134
73.6365  0.177138  0.0143570
74.0047  0.200449  0.0152920
74.3747  0.170283  0.0141190
74.7466  0.171401  0.0141705
75.1203  0.170635  0.0141566
75.4959  0.193315  0.0150793
75.8734  0.190558  0.0149847
76.2527  0.183888  0.0147331
76.6340  0.177694  0.0144997
77.0172  0.179631  0.0145924
77.4023  0.205126  0.0156198
77.7893  0.174942  0.0144355
78.1782  0.163074  0.0139515
78.5691  0.209278  0.0158253
78.9620  0.175453  0.0145055
79.3568  0.172155  0.0143859
79.7535  0.173023  0.0144361
80.1523  0.199893  0.0155442
80.5531  0.186849  0.0150403
80.9558  0.218303  0.0162807
81.3606  0.186531  0.0150618
81.7674  0.189337  0.0151921
82.1763  0.177966  0.0147510
82.5871  0.176518  0.0147097
83.0001  0.191033  0.0153305
83.4151  0.180304  0.0149111
83.8321  0.200666  0.0157416
84.2513  0.198880  0.0156988
84.6726  0.212117  0.0162345
85.0959  0.225094  0.0167414
85.5214  0.201803  0.0158744
85.9490  0.194514  0.0156129
86.3788  0.184118  0.0152053
86.8106  0.215800  0.0164802
87.2447  0.211906  0.0163568
87.6809  0.222898  0.0167981
88.1193  0.201268  0.0159815
88.5599  0.201377  0.0159986
89.0027  0.181327  0.0152090
89.4477  0.221065  0.0168231
89.8950  0.195077  0.0158228
90.3445  0.177810  0.0151444
90.7962  0.208927  0.0164363
91.2502  0.206406  0.0163490
91.7064  0.222654  0.0170020
92.1649  0.248622  0.0179857
92.6258  0.224727  0.0171307
93.0889  0.226074  0.0172093
93.5543  0.235942  0.0176112
94.0221  0.237585  0.0176982
94.4922  0.199073  0.0162220
94.9647  0.261691  0.0186304
95.4395  0.230651  0.0175173
95.9167  0.273723  0.0191035
96.3963  0.241657  0.0179895
96.8783  0.245151  0.0181416
97.3627  0.214945  0.0170113
97.8495  0.237492  0.0178967
98.3387  0.242042  0.0180967
98.8304  0.271705  0.0192005
99.3246  0.245665  0.0182901
99.8212  0.248547  0.0184330
100.320  0.253487  0.0186484
100.822  0.227339  0.0176847
101.326  0.213958  0.0171849
101.833  0.239996  0.0182290
102.342  0.237839  0.0181765
102.854  0.225940  0.0177487
103.368  0.216629  0.0174061
103.885  0.217074  0.0174447
104.404  0.249216  0.0187133
104.926  0.255061  0.0189617
105.451  0.260413  0.0192072
105.978  0.240660  0.0184945
106.508  0.248542  0.0188357
107.040  0.257270  0.0191986
107.576  0.267812  0.0196037
108.113  0.219521  0.0177722
108.654  0.248232  0.0189220
109.197  0.249211  0.0189860
109.743  0.238192  0.0185986
110.292  0.272924  0.0199368
110.843  0.241476  0.0187909
111.398  0.253465  0.0192728
111.955  0.280375  0.0203061
112.514  0.263324  0.0197228
113.077  0.245117  0.0190555
113.642  0.236352  0.0187324
114.211  0.273048  0.0201643
114.782  0.220633  0.0181471
115.356  0.253437  0.0194857
115.932  0.285101  0.0207020
116.512  0.249722  0.0194110
117.095  0.252635  0.0195530
117.680  0.259566  0.0198571
118.268  0.254706  0.0197006
118.860  0.260609  0.0199548
119.454  0.232642  0.0188863
120.051  0.279033  0.0207100
120.652  0.246605  0.0195009
121.255  0.251805  0.0197435
121.861  0.228549  0.0188395
122.470  0.242001  0.0194229
123.083  0.258816  0.0201207
123.698  0.276815  0.0208226
124.317  0.267192  0.0204855
124.938  0.251460  0.0199179
125.563  0.265177  0.0204862
126.191  0.228584  0.0190565
126.822  0.243201  0.0196884
127.456  0.243264  0.0197158
128.093  0.265651  0.0206374
128.734  0.267300  0.0207348
129.377  0.280879  0.0212859
130.024  0.287384  0.0215586
130.674  0.295125  0.0218757
131.328  0.247020  0.0200505
131.984  0.246590  0.0200610
132.644  0.260666  0.0206526
133.307  0.251087  0.0203038
133.974  0.285830  0.0216963
134.644  0.276427  0.0213816
135.317  0.295031  0.0221188
135.994  0.315632  0.0229170
136.674  0.291892  0.0220705
137.357  0.292162  0.0221095
138.044  0.304884  0.0226062
138.734  0.274919  0.0214937
139.428  0.276023  0.0215874
140.125  0.314880  0.0230782
140.825  0.299366  0.0225243
141.530  0.315638  0.0231712
142.237  0.345411  0.0242828
142.948  0.275900  0.0217395
143.663  0.301778  0.0227701
144.381  0.358910  0.0248551
145.103  0.309390  0.0231207
145.829  0.300983  0.0228349
146.558  0.309602  0.0231809
147.291  0.325106  0.0237920
148.027  0.293291  0.0226355
148.767  0.242944  0.0206284
149.511  0.316199  0.0235734
150.259  0.288724  0.0225670
151.010  0.315484  0.0236205
151.765  0.289971  0.0226767
152.524  0.295164  0.0228999
153.287  0.287750  0.0226446
154.053  0.253555  0.0212843
154.823  0.277115  0.0222787
155.597  0.267868  0.0219395
156.375  0.276348  0.0223079
157.157  0.291893  0.0229517
157.943  0.278367  0.0224528
158.733  0.263625  0.0218779
159.526  0.312665  0.0238585
160.324  0.296485  0.0232628
161.126  0.301032  0.0234775
161.931  0.315596  0.0240723
162.741  0.273938  0.0224480
163.555  0.307855  0.0238264
164.372  0.327940  0.0246365
165.194  0.285811  0.0230228
166.020  0.259725  0.0219716
166.850  0.308851  0.0239821
167.685  0.328036  0.0247393
168.523  0.297937  0.0236238
169.366  0.305399  0.0239706
170.212  0.285511  0.0232083
171.064  0.301851  0.0238788
171.919  0.342551  0.0254533
172.778  0.298339  0.0237785
173.642  0.313135  0.0243993
174.511  0.275203  0.0229187
175.383  0.281624  0.0232074
176.260  0.278456  0.0230934
177.141  0.265089  0.0225676
178.027  0.338651  0.0255456
178.917  0.280449  0.0232745
179.812  0.295711  0.0239273
180.711  0.294083  0.0238887
181.614  0.310362  0.0245762
182.522  0.295477  0.0240053
183.435  0.309928  0.0246183
184.352  0.294181  0.0240125
185.274  0.321568  0.0251299
186.200  0.291740  0.0239702
187.131  0.322317  0.0252269
188.067  0.357153  0.0265704
189.007  0.330383  0.0255755
189.952  0.308065  0.0247340
190.902  0.318476  0.0251974
191.857  0.333224  0.0258123
192.816  0.353129  0.0266020
193.780  0.269600  0.0232644
194.749  0.315616  0.0251937
195.723  0.292250  0.0242719
196.701  0.311805  0.0250948
197.685  0.326279  0.0257107
198.673  0.331758  0.0259524
199.667  0.356250  0.0269145
200.665  0.317746  0.0254354
201.668  0.296173  0.0245805
202.677  0.299875  0.0247516
203.690  0.303489  0.0249512
204.708  0.330004  0.0260437
205.732  0.346224  0.0267040
206.761  0.347584  0.0267917
207.794  0.313173  0.0254628
208.833  0.337120  0.0264491
209.878  0.308475  0.0253330
210.927  0.306888  0.0252995
211.982  0.329585  0.0262423
213.042  0.320053  0.0258819
214.107  0.355142  0.0273060
215.177  0.344109  0.0269176
216.253  0.359293  0.0275264
217.334  0.379373  0.0282922
218.421  0.321693  0.0260720
219.513  0.357207  0.0275111
220.611  0.361004  0.0276853
221.714  0.347345  0.0271781
222.822  0.327911  0.0264237
223.936  0.292778  0.0249961
225.056  0.265798  0.0238471
226.181  0.292293  0.0250421
227.312  0.349852  0.0274355
228.449  0.311652  0.0259180
229.591  0.340599  0.0271274
230.739  0.315598  0.0261307
231.893  0.318215  0.0262572
233.052  0.342901  0.0272768
234.218  0.290098  0.0251220
235.389  0.319713  0.0264121
236.566  0.310027  0.0260194
237.748  0.343136  0.0273952
238.937  0.322805  0.0265861
240.132  0.335503  0.0271278
241.332  0.308872  0.0260547
242.539  0.324324  0.0267257
243.752  0.318222  0.0265012
244.971  0.323104  0.0267527
246.195  0.289718  0.0253460
247.426  0.340641  0.0275106
248.664  0.329405  0.0270741
249.907  0.331179  0.0271658
251.156  0.335318  0.0273617
252.412  0.321109  0.0268097
253.674  0.315785  0.0266265
254.943  0.304067  0.0261451
256.217  0.338397  0.0275949
257.498  0.325657  0.0270983
258.786  0.342781  0.0278183
260.080  0.358591  0.0284817
261.380  0.275226  0.0249808
262.687  0.266887  0.0246247
264.001  0.346568  0.0280868
265.321  0.331267  0.0274871
266.647  0.341404  0.0279224
267.980  0.301796  0.0262598
269.320  0.349867  0.0283005
270.667  0.325727  0.0273342
272.020  0.366518  0.0290411
273.380  0.369339  0.0291804
274.747  0.394095  0.0301482
276.121  0.335836  0.0278569
277.502  0.333750  0.0277992
278.889  0.352841  0.0285905
280.284  0.321050  0.0273028
281.685  0.280208  0.0255532
283.093  0.312264  0.0270049
284.509  0.334681  0.0279690
285.931  0.316456  0.0272112
287.361  0.332920  0.0279235
288.798  0.310244  0.0269931
290.242  0.295608  0.0263865
291.693  0.336290  0.0281636
293.152  0.343970  0.0285009
294.617  0.355592  0.0289971
296.090  0.338834  0.0283197
297.571  0.335388  0.0281812
299.059  0.277427  0.0256557
300.554  0.319431  0.0275747
302.057  0.331437  0.0281279
303.567  0.334619  0.0282595
305.085  0.299057  0.0267271
306.610  0.298070  0.0267128
308.143  0.311596  0.0273485
309.684  0.320472  0.0277652
311.232  0.307676  0.0272150
312.789  0.343531  0.0287797
314.353  0.315458  0.0276024
315.924  0.338779  0.0286243
317.504  0.362462  0.0296184
319.091  0.316175  0.0276861
320.687  0.365949  0.0298159
322.290  0.396150  0.0310513
323.902  0.409260  0.0315961
325.521  0.356959  0.0295431
327.149  0.333612  0.0285884
328.785  0.379900  0.0305362
330.429  0.372493  0.0302647
332.081  0.338711  0.0288677
333.741  0.329881  0.0285055
335.410  0.347821  0.0293031
337.087  0.345458  0.0292224
338.772  0.348674  0.0293667
340.466  0.308476  0.0276473
342.168  0.333283  0.0287578
343.879  0.350770  0.0295319
345.599  0.377435  0.0306814
347.327  0.338116  0.0290646
349.063  0.312993  0.0279842
350.809  0.344241  0.0293718
352.563  0.330601  0.0288201
354.326  0.366949  0.0303838
356.097  0.356798  0.0299600
357.878  0.326301  0.0286637
359.667  0.361077  0.0301823
361.465  0.337387  0.0292062
363.273  0.324813  0.0286910
365.089  0.344259  0.0295663
366.915  0.348007  0.0297400
368.749  0.362098  0.0303574
370.593  0.362569  0.0304129
372.446  0.316503  0.0284530
374.308  0.342092  0.0296285
376.180  0.298876  0.0277236
378.060  0.326247  0.0289786
379.951  0.353841  0.0302031
381.851  0.344101  0.0298158
383.760  0.383390  0.0315048
385.679  0.399135  0.0321717
387.607  0.379586  0.0313892
389.545  0.378352  0.0313549
391.493  0.334358  0.0294885
393.450  0.340466  0.0297887
395.417  0.326263  0.0292006
397.395  0.377759  0.0314488
399.382  0.409873  0.0327990
401.378  0.355237  0.0305747
403.385  0.331864  0.0295722
405.402  0.351441  0.0304292
407.429  0.355921  0.0306470
409.466  0.367456  0.0311918
411.514  0.343173  0.0301855
413.571  0.344061  0.0302700
415.639  0.360962  0.0310369
417.717  0.373560  0.0316071
419.806  0.312221  0.0289300
421.905  0.336650  0.0300672
424.014  0.367311  0.0314324
426.135  0.361591  0.0312045
428.265  0.351307  0.0307890
430.407  0.336670  0.0301820
432.559  0.342416  0.0304850
434.721  0.362643  0.0314207
436.895  0.366535  0.0316418
439.079  0.356623  0.0312440
441.275  0.385501  0.0325248
443.481  0.379016  0.0322721
445.699  0.389503  0.0327625
447.927  0.384320  0.0325879
450.167  0.344580  0.0308771
452.418  0.357156  0.0314646
454.680  0.327505  0.0301790
456.953  0.360249  0.0317157
459.238  0.391478  0.0331160
461.534  0.396247  0.0333472
463.842  0.410407  0.0339513
466.161  0.349342  0.0313618
468.492  0.347898  0.0313587
470.834  0.372274  0.0324789
473.188  0.371960  0.0325123
475.554  0.381628  0.0329737
477.932  0.337548  0.0310397
480.322  0.351773  0.0317157
482.723  0.329594  0.0307488
485.137  0.344782  0.0314801
487.563  0.366092  0.0324695
490.000  0.438042  0.0355525
492.450  0.357303  0.0321567
494.913  0.353865  0.0320461
497.387  0.351064  0.0319486
499.874  0.344221  0.141043
500.000  0.504825  0.111126
