2.00000  3.29666  0.533589
2.01000  3.34336  0.654793
2.02005  3.52566  0.734699
2.03015  4.04678  0.757458
2.04030  4.87546  0.864205
2.05050  6.44752  1.33107
2.06076  5.07197  1.03672
2.07106  4.50724  1.07210
2.08141  5.32391  0.978703
2.09182  5.19766  1.08265
2.10228  5.42208  0.952071
2.11279  4.18147  0.700642
2.12336  2.59359  0.465068
2.13397  3.79563  0.575689
2.14464  4.07755  0.798750
2.15537  4.18216  0.662967
2.16614  4.63186  0.748169
2.17697  3.21573  0.510638
2.18786  4.58521  0.622747
2.19880  3.49846  0.540565
2.20979  2.72383  0.471410
2.22084  4.13116  0.738767
2.23194  3.78853  0.558652
2.24310  5.02618  0.656510
2.25432  3.77942  0.663057
2.26559  4.04703  0.758326
2.27692  3.42898  0.538998
2.28830  4.94397  0.763209
2.29974  3.68188  0.679395
2.31124  3.12013  0.477677
2.32280  3.96179  0.611813
2.33441  3.41755  0.604561
2.34609  3.85268  0.552503
2.35782  3.72558  0.692499
2.36960  4.44212  0.589795
2.38145  4.58110  0.664584
2.39336  3.74778  0.767872
2.40533  3.20896  0.494991
2.41735  3.73604  0.657592
2.42944  2.61267  0.434080
2.44159  3.21489  0.485005
2.45380  3.75650  0.553225
2.46606  3.97077  0.796952
2.47839  2.98754  0.614640
2.49079  3.42795  0.481886
2.50324  4.17132  0.547302
2.51576  3.64933  0.667927
2.52834  3.51512  0.494872
2.54098  4.80238  0.746710
2.55368  3.70611  0.712024
2.56645  3.39910  0.471236
2.57928  3.55188  0.594058
2.59218  3.74284  0.543223
2.60514  4.36633  0.772639
2.61817  4.40427  0.661020
2.63126  2.79251  0.418728
2.64441  3.57014  0.488181
2.65763  4.58508  0.683015
2.67092  4.23908  0.635967
2.68428  3.83682  0.505405
2.69770  3.84523  0.705481
2.71119  3.54120  0.532013
2.72474  3.13104  0.451775
2.73837  2.78012  0.424177
2.75206  4.17067  0.700206
2.76582  4.34232  0.685186
2.77965  3.96277  0.500149
2.79355  4.51000  0.632199
2.80751  2.96575  0.452423
2.82155  3.31764  0.624109
2.83566  3.06379  0.433188
2.84984  2.87080  0.417428
2.86409  3.30260  0.440500
2.87841  3.92028  0.704329
2.89280  3.04716  0.422641
2.90726  4.33737  0.687691
2.92180  3.59068  0.588285
2.93641  3.62177  0.674512
2.95109  2.80909  0.425609
2.96585  4.36052  0.689486
2.98068  3.49100  0.571777
2.99558  3.11811  0.414289
3.01056  3.59990  0.449179
3.02561  2.91250  0.399404
3.04074  3.47408  0.502099
3.05594  3.21718  0.438230
3.07122  3.57897  0.638299
3.08658  3.98095  0.563514
3.10201  4.51198  0.607921
3.11752  2.89563  0.432175
3.13311  4.20722  0.606376
3.14877  4.28573  0.478795
3.16452  3.29247  0.411648
3.18034  3.21138  0.478264
3.19624  3.77967  0.452134
3.21222  2.54491  0.353980
3.22828  2.76379  0.375352
3.24443  2.98180  0.393798
3.26065  3.54207  0.425523
3.27695  4.56352  0.610705
3.29334  3.57911  0.564772
3.30980  3.96223  0.613020
3.32635  3.72098  0.523342
3.34298  3.00946  0.581970
3.35970  3.80910  0.432700
3.37650  3.39576  0.409825
3.39338  2.46969  0.330445
3.41035  3.59216  0.421242
3.42740  4.19572  0.661596
3.44453  3.66621  0.516337
3.46176  3.61989  0.484314
3.47907  3.40158  0.497912
3.49646  2.90171  0.368255
3.51394  2.53500  0.336686
3.53151  3.48551  0.403939
3.54917  4.04144  0.512336
3.56692  3.12423  0.474324
3.58475  3.58710  0.478605
3.60268  2.55813  0.431921
3.62069  2.84936  0.392424
3.63879  3.33548  0.515186
3.65699  3.64048  0.597263
3.67527  2.96108  0.365337
3.69365  3.14346  0.438111
3.71212  2.42442  0.333228
3.73068  3.35033  0.462024
3.74933  3.43844  0.525333
3.76808  2.73227  0.342127
3.78692  3.75950  0.473604
3.80585  3.23533  0.437894
3.82488  3.47599  0.451844
3.84400  2.81939  0.432299
3.86322  4.05628  0.561671
3.88254  3.11758  0.432547
3.90195  2.88898  0.343325
3.92146  3.73305  0.453832
3.94107  3.52786  0.505242
3.96078  3.02470  0.406344
3.98058  3.62602  0.432365
4.00048  2.69011  0.382054
4.02049  2.96973  0.403752
4.04059  3.25849  0.431583
4.06079  2.79104  0.410207
4.08109  3.29054  0.432072
4.10150  2.84759  0.330558
4.12201  3.71940  0.486101
4.14262  3.78364  0.571807
4.16333  3.15578  0.454576
4.18415  2.76442  0.384016
4.20507  2.15767  0.298643
4.22609  3.66177  0.418762
4.24722  3.61889  0.501169
4.26846  2.91781  0.326486
4.28980  3.23729  0.416795
4.31125  2.78028  0.321840
4.33281  2.77859  0.319827
4.35447  2.48556  0.334638
4.37624  2.37981  0.383921
4.39812  2.88949  0.369027
4.42012  2.82563  0.382969
4.44222  2.92389  0.430203
4.46443  2.75968  0.372433
4.48675  2.07404  0.263672
4.50918  2.70036  0.305417
4.53173  2.56528  0.296497
4.55439  2.74160  0.361967
4.57716  2.03356  0.257143
4.60005  2.13173  0.263625
4.62305  2.88433  0.371735
4.64616  2.76303  0.405101
4.66939  2.44484  0.275575
4.69274  3.07235  0.447962
4.71620  2.75072  0.352141
4.73978  2.49142  0.335679
4.76348  2.41624  0.279092
4.78730  3.18540  0.320544
4.81124  2.41880  0.335219
4.83529  2.34131  0.269438
4.85947  2.17386  0.259244
4.88377  2.59973  0.283957
4.90818  2.44498  0.273813
4.93273  2.67110  0.333097
4.95739  3.17702  0.366969
4.98218  2.99266  0.425002
5.00709  2.68149  0.305938
5.03212  2.81632  0.415671
5.05728  2.47975  0.272077
5.08257  2.88720  0.296853
5.10798  2.69349  0.337172
5.13352  2.56432  0.274044
5.15919  2.66249  0.324032
5.18499  3.33547  0.383430
5.21091  3.07146  0.310559
5.23697  2.61747  0.273100
5.26315  2.57769  0.283787
5.28947  2.71303  0.303976
5.31591  2.69474  0.325235
5.34249  2.69590  0.382075
5.36920  2.95204  0.337644
5.39605  2.75141  0.279872
5.42303  2.94172  0.357017
5.45015  2.46127  0.261338
5.47740  2.54164  0.264874
5.50478  3.56077  0.451945
5.53231  2.94551  0.323948
5.55997  2.68515  0.268506
5.58777  2.78593  0.274206
5.61571  2.85114  0.387471
5.64379  2.76784  0.326698
5.67201  2.77073  0.305259
5.70037  2.92992  0.279188
5.72887  2.48187  0.291909
5.75751  2.64953  0.339372
5.78630  2.30462  0.255256
5.81523  2.83742  0.299353
5.84431  2.99594  0.307653
5.87353  2.81472  0.313892
5.90290  2.74261  0.362306
5.93241  2.62183  0.290125
5.96207  2.61561  0.289357
5.99188  2.54667  0.290614
6.02184  3.04545  0.350429
6.05195  2.74108  0.296705
6.08221  2.32348  0.261389
6.11262  2.01063  0.219384
6.14319  2.24155  0.232732
6.17390  1.94623  0.215364
6.20477  1.84697  0.203735
6.23580  2.43551  0.304201
6.26697  1.78995  0.203366
6.29831  1.92512  0.252973
6.32980  2.58795  0.277822
6.36145  2.24997  0.279686
6.39326  2.07889  0.251097
6.42522  2.18570  0.237041
6.45735  1.96077  0.206510
6.48964  1.75711  0.195962
6.52209  2.21347  0.226468
6.55470  2.30355  0.323087
6.58747  2.44150  0.286337
6.62041  2.12095  0.276503
6.65351  1.71208  0.189973
6.68678  1.79576  0.261342
6.72021  2.13790  0.274471
6.75381  2.04489  0.211033
6.78758  2.16003  0.272173
6.82152  1.96235  0.258632
6.85563  1.89880  0.264735
6.88990  2.26604  0.246588
6.92435  2.38147  0.249272
6.95898  2.18234  0.210324
6.99377  2.27485  0.253073
7.02874  2.34528  0.289674
7.06388  2.29708  0.287416
7.09920  2.61818  0.284115
7.13470  2.28089  0.247091
7.17037  2.29922  0.235054
7.20622  2.35482  0.238504
7.24226  1.78939  0.190013
7.27847  2.18896  0.206149
7.31486  2.41768  0.289871
7.35143  1.74665  0.184170
7.38819  2.12478  0.227474
7.42513  2.14835  0.219895
7.46226  2.00256  0.201438
7.49957  1.80040  0.208322
7.53707  2.55511  0.282605
7.57475  2.11248  0.253653
7.61263  2.41775  0.236272
7.65069  2.24033  0.226814
7.68894  2.49603  0.239903
7.72739  2.19337  0.243374
7.76602  2.51631  0.270032
7.80485  2.33211  0.240632
7.84388  2.47718  0.237235
7.88310  2.20671  0.219750
7.92251  2.36254  0.250725
7.96213  2.43997  0.247205
8.00194  2.50871  0.231849
8.04195  2.28649  0.213217
8.08216  2.46415  0.237349
8.12257  2.36035  0.220171
8.16318  2.95473  0.301538
8.20400  2.45367  0.247408
8.24502  2.69515  0.243149
8.28624  2.59550  0.247767
8.32767  2.39444  0.215748
8.36931  2.15598  0.232560
8.41116  2.37407  0.220061
8.45321  2.30912  0.194262
8.49548  2.45257  0.241263
8.53796  2.37539  0.196535
8.58065  2.69032  0.265233
8.62355  2.80070  0.232957
8.66667  2.75253  0.210537
8.71000  2.28114  0.211610
8.75355  2.76133  0.244412
8.79732  2.58100  0.220469
8.84130  2.45521  0.216467
8.88551  3.04555  0.267943
8.92994  2.55860  0.218793
8.97459  2.78069  0.230851
9.01946  2.91472  0.269924
9.06456  2.69400  0.250426
9.10988  2.39874  0.189753
9.15543  2.44846  0.192552
9.20121  2.75131  0.202473
9.24721  2.81103  0.222264
9.29345  2.80410  0.221173
9.33992  2.80055  0.256652
9.38662  2.76797  0.241488
9.43355  2.53543  0.208156
9.48072  2.39285  0.183872
9.52812  2.61760  0.224973
9.57576  2.85766  0.232858
9.62364  2.94644  0.264663
9.67176  2.75146  0.240816
9.72012  2.39846  0.209189
9.76872  2.67674  0.208957
9.81756  2.24448  0.207315
9.86665  2.63153  0.232729
9.91598  2.28128  0.175893
9.96556  2.37299  0.194362
10.0154  2.48104  0.226604
10.0655  2.23207  0.180111
10.1158  2.54012  0.222896
10.1664  2.05145  0.181257
10.2172  2.44896  0.189550
10.2683  1.98587  0.171027
10.3196  2.10071  0.197316
10.3712  2.08910  0.164583
10.4231  2.10428  0.180162
10.4752  2.40876  0.219492
10.5276  1.94413  0.173123
10.5802  2.55779  0.242352
10.6331  2.24824  0.191663
10.6863  2.14037  0.214940
10.7397  2.07055  0.182238
10.7934  2.36282  0.204409
10.8474  2.65842  0.231044
10.9016  2.26081  0.185322
10.9561  2.40154  0.202413
11.0109  2.63565  0.219521
11.0660  2.43976  0.199954
11.1213  2.41541  0.198047
11.1769  2.36369  0.210178
11.2328  2.36751  0.208036
11.2889  2.47659  0.174127
11.3454  2.37528  0.183731
11.4021  2.29408  0.165720
11.4591  2.18243  0.179192
11.5164  2.54868  0.216300
11.5740  2.08130  0.157279
11.6319  2.53345  0.184808
11.6900  2.34637  0.230055
11.7485  2.37281  0.178550
11.8072  2.49397  0.213450
11.8663  2.48251  0.180624
11.9256  2.21576  0.183476
11.9852  2.49299  0.201569
12.0452  2.34489  0.196298
12.1054  2.04069  0.172085
12.1659  2.41427  0.187380
12.2267  2.35995  0.183990
12.2879  2.41296  0.194298
12.3493  2.86704  0.220361
12.4111  2.22366  0.182466
12.4731  2.38291  0.191261
12.5355  2.28123  0.187922
12.5982  2.57594  0.205761
12.6611  2.20372  0.171783
12.7244  2.31752  0.184939
12.7881  2.68322  0.208807
12.8520  2.44324  0.186056
12.9163  2.78582  0.220702
12.9809  2.30752  0.191773
13.0458  2.34550  0.193741
13.1110  2.49206  0.187820
13.1765  2.30264  0.179920
13.2424  2.45303  0.177727
13.3086  2.13303  0.200793
13.3752  2.48158  0.199801
13.4421  2.38788  0.169828
13.5093  2.13698  0.156493
13.5768  2.23583  0.167103
13.6447  2.30436  0.185440
13.7129  2.06514  0.159391
13.7815  2.50873  0.213897
13.8504  2.30808  0.172559
13.9196  2.32144  0.157982
13.9892  2.05737  0.158601
14.0592  2.26979  0.181738
14.1295  2.14244  0.141412
14.2001  2.17968  0.142023
14.2711  2.35838  0.174240
14.3425  2.25631  0.161866
14.4142  2.35731  0.181070
14.4863  2.61707  0.198703
14.5587  2.29655  0.194671
14.6315  2.54885  0.183039
14.7047  2.25058  0.185035
14.7782  2.21496  0.162552
14.8521  2.22528  0.166408
14.9263  2.08915  0.163442
15.0010  2.01254  0.174250
15.0760  2.51582  0.183880
15.1513  2.08049  0.152036
15.2271  2.17665  0.168249
15.3032  2.11195  0.179466
15.3798  2.19747  0.162823
15.4566  2.09096  0.157679
15.5339  2.34665  0.189813
15.6116  1.88952  0.137268
15.6897  1.90133  0.133952
15.7681  1.95452  0.143643
15.8469  2.09795  0.158856
15.9262  1.89732  0.137376
16.0058  1.72027  0.126980
16.0858  2.09458  0.153284
16.1663  2.15941  0.162341
16.2471  1.74919  0.141013
16.3283  1.91660  0.154349
16.4100  2.06791  0.139460
16.4920  2.09641  0.142488
16.5745  2.21916  0.175266
16.6574  2.05887  0.158034
16.7407  2.16439  0.147877
16.8244  2.14265  0.157670
16.9085  2.29141  0.166894
16.9930  2.14060  0.157430
17.0780  2.32887  0.173388
17.1634  2.06569  0.146108
17.2492  1.91281  0.151438
17.3354  2.17362  0.136861
17.4221  2.16398  0.167240
17.5092  2.28672  0.147263
17.5968  2.40793  0.171925
17.6848  2.12480  0.154553
17.7732  2.35197  0.149663
17.8620  2.24887  0.145175
17.9514  2.04878  0.143481
18.0411  1.95172  0.151369
18.1313  2.05783  0.138652
18.2220  2.30399  0.156433
18.3131  2.13410  0.161829
18.4047  2.14110  0.152295
18.4967  1.99774  0.144200
18.5892  2.13122  0.156037
18.6821  1.93941  0.139293
18.7755  1.97702  0.142012
18.8694  1.85971  0.119725
18.9637  1.81759  0.122790
19.0586  1.73035  0.124637
19.1539  1.97455  0.115821
19.2496  1.88034  0.134591
19.3459  2.01118  0.137743
19.4426  1.97349  0.133462
19.5398  2.10664  0.142477
19.6375  2.13675  0.147359
19.7357  2.14220  0.131784
19.8344  2.03867  0.142945
19.9335  1.96189  0.132157
20.0332  2.19856  0.162386
20.1334  2.08962  0.140802
20.2341  2.25035  0.135325
20.3352  2.45587  0.146948
20.4369  2.34508  0.148976
20.5391  2.02728  0.136413
20.6418  2.27173  0.142230
20.7450  2.22412  0.140779
20.8487  2.51920  0.166269
20.9530  2.33465  0.146462
21.0577  2.34211  0.149147
21.1630  2.21893  0.129067
21.2688  2.51722  0.146805
21.3752  2.26688  0.147805
21.4820  2.21049  0.140827
21.5895  2.23237  0.137710
21.6974  2.17693  0.153816
21.8059  1.94492  0.118957
21.9149  2.16776  0.138840
22.0245  2.02035  0.126603
22.1346  2.34136  0.156218
22.2453  2.04431  0.130697
22.3565  2.07031  0.140247
22.4683  1.91285  0.123561
22.5806  2.13139  0.140480
22.6935  1.88060  0.116655
22.8070  1.89583  0.128615
22.9210  2.00460  0.120937
23.0357  2.19707  0.135628
23.1508  2.02170  0.120135
23.2666  2.04194  0.144863
23.3829  2.22324  0.142720
23.4998  2.00794  0.118276
23.6173  2.18536  0.122942
23.7354  2.45059  0.132462
23.8541  2.06585  0.122919
23.9734  2.34670  0.139602
24.0932  2.49183  0.154359
24.2137  1.95042  0.109279
24.3348  2.19384  0.127819
24.4564  2.26284  0.144468
24.5787  2.11175  0.137649
24.7016  2.21101  0.112686
24.8251  2.54374  0.144691
24.9493  2.36188  0.150690
25.0740  2.04500  0.120080
25.1994  2.29389  0.134069
25.3254  2.24981  0.140700
25.4520  2.16598  0.125279
25.5793  2.28562  0.132436
25.7071  2.11343  0.135817
25.8357  2.19842  0.116804
25.9649  2.48005  0.133508
26.0947  2.42853  0.140622
26.2252  2.51413  0.144580
26.3563  2.35331  0.123900
26.4881  2.35678  0.128140
26.6205  2.51848  0.146617
26.7536  2.57822  0.146233
26.8874  2.26874  0.124306
27.0218  2.35173  0.141821
27.1569  2.61901  0.140687
27.2927  2.37429  0.120895
27.4292  2.40802  0.133253
27.5663  2.43183  0.133382
27.7042  2.87297  0.153198
27.8427  2.33213  0.133342
27.9819  2.23898  0.129026
28.1218  2.23688  0.121405
28.2624  2.14337  0.123902
28.4037  2.16494  0.127707
28.5457  2.38437  0.130516
28.6885  2.43607  0.145033
28.8319  2.36395  0.127332
28.9761  2.34330  0.118740
29.1209  2.27593  0.119905
29.2666  2.31288  0.131220
29.4129  2.07889  0.111936
29.5599  2.42578  0.120938
29.7078  2.30695  0.126593
29.8563  2.16524  0.126838
30.0056  2.26953  0.131574
30.1556  2.19746  0.127258
30.3064  2.50881  0.141683
30.4579  2.30367  0.124607
30.6102  2.34138  0.120749
30.7632  2.13933  0.124896
30.9171  2.17759  0.122728
31.0716  2.14999  0.121508
31.2270  2.05669  0.106990
31.3831  1.91395  0.108982
31.5401  2.08947  0.107004
31.6978  1.95452  0.112949
31.8562  2.13315  0.119665
32.0155  2.21728  0.137061
32.1756  2.25422  0.122896
32.3365  2.47456  0.137004
32.4982  2.09777  0.115637
32.6607  2.33185  0.130363
32.8240  2.05930  0.119500
32.9881  2.11940  0.120944
33.1530  2.08017  0.112415
33.3188  2.12743  0.116799
33.4854  1.99546  0.105041
33.6528  2.24620  0.120362
33.8211  2.17641  0.125753
33.9902  2.12989  0.117138
34.1601  2.08724  0.111916
34.3309  2.18058  0.118719
34.5026  2.23363  0.124871
34.6751  1.93647  0.104279
34.8485  2.15432  0.104206
35.0227  2.07739  0.110674
35.1978  2.24140  0.118802
35.3738  2.22558  0.122684
35.5507  2.30184  0.125795
35.7284  2.00493  0.112729
35.9071  2.38277  0.131383
36.0866  2.22826  0.124619
36.2670  2.16513  0.112331
36.4484  2.09740  0.111801
36.6306  2.27790  0.126358
36.8138  2.11142  0.116675
36.9978  2.25126  0.114607
37.1828  2.20694  0.113103
37.3687  2.10016  0.119232
37.5556  2.38061  0.126504
37.7434  2.21283  0.111520
37.9321  2.16241  0.108786
38.1217  2.17049  0.108135
38.3124  2.08437  0.112063
38.5039  2.07036  0.0989173
38.6964  2.19985  0.117138
38.8899  2.26181  0.117825
39.0844  2.19335  0.113965
39.2798  2.21147  0.123137
39.4762  2.28350  0.126327
39.6736  2.02398  0.109586
39.8719  2.11899  0.117066
40.0713  2.16786  0.125642
40.2717  1.97384  0.101060
40.4730  2.15371  0.105667
40.6754  2.12215  0.107455
40.8788  2.14672  0.110569
41.0831  2.25660  0.121203
41.2886  2.06830  0.0973166
41.4950  2.12187  0.105572
41.7025  2.09493  0.100240
41.9110  1.97168  0.100095
42.1206  2.09261  0.0978011
42.3312  2.02464  0.102658
42.5428  1.99473  0.103569
42.7555  2.16540  0.124530
42.9693  2.03166  0.0994225
43.1842  2.03073  0.110662
43.4001  2.16548  0.111177
43.6171  2.12605  0.100423
43.8352  2.02806  0.100523
44.0543  2.41567  0.118847
44.2746  1.95749  0.103616
44.4960  2.09701  0.106254
44.7185  2.17168  0.112132
44.9421  2.13468  0.107182
45.1668  2.15379  0.105864
45.3926  2.22724  0.105518
45.6196  2.10202  0.108407
45.8477  2.15977  0.115920
46.0769  2.00833  0.110421
46.3073  2.09967  0.114255
46.5388  2.09271  0.103817
46.7715  1.90646  0.0944572
47.0054  2.19025  0.108154
47.2404  2.27524  0.117808
47.4766  2.20352  0.114641
47.7140  2.11968  0.105643
47.9525  2.07002  0.0989495
48.1923  2.27877  0.115092
48.4333  2.16761  0.115516
48.6754  2.47762  0.118058
48.9188  2.07034  0.0965203
49.1634  2.42582  0.114657
49.4092  2.22175  0.119008
49.6563  2.00334  0.108232
49.9045  2.13629  0.107404
50.1541  2.12320  0.109343
50.4048  2.15464  0.125558
50.6569  2.11162  0.105906
50.9102  2.22241  0.116861
51.1647  2.31137  0.118819
51.4205  2.23833  0.103961
51.6776  2.25164  0.113417
51.9360  2.39762  0.126093
52.1957  2.25534  0.115740
52.4567  2.17288  0.110772
52.7190  2.24528  0.106538
52.9826  2.26717  0.109948
53.2475  2.13509  0.106607
53.5137  2.03159  0.106592
53.7813  2.13038  0.111856
54.0502  2.22389  0.118489
54.3204  2.25607  0.127644
54.5920  2.05556  0.105348
54.8650  2.10135  0.108419
55.1393  2.24691  0.116092
55.4150  2.25116  0.114523
55.6921  2.15239  0.104467
55.9706  2.44684  0.125992
56.2504  2.16138  0.116883
56.5317  2.06121  0.0998019
56.8143  2.29336  0.117937
57.0984  2.00376  0.106641
57.3839  2.21351  0.114986
57.6708  2.33381  0.109554
57.9592  2.25313  0.113161
58.2490  2.26719  0.117005
58.5402  2.23907  0.116327
58.8329  2.35293  0.114573
59.1271  2.20787  0.103811
59.4227  1.87351  0.103859
59.7198  2.23343  0.104707
60.0184  2.12352  0.0992321
60.3185  2.40898  0.124657
60.6201  2.39299  0.114236
60.9232  2.34251  0.114203
61.2278  2.52280  0.124903
61.5340  2.59970  0.128522
61.8416  2.30961  0.119425
62.1508  2.24876  0.118877
62.4616  2.21477  0.106078
62.7739  2.51032  0.121786
63.0878  2.23600  0.118386
63.4032  2.35092  0.117066
63.7202  2.36758  0.125833
64.0388  2.29347  0.108554
64.3590  2.20809  0.111702
64.6808  2.33823  0.123123
65.0042  2.53279  0.140531
65.3292  2.28766  0.111596
65.6559  2.36259  0.122170
65.9841  2.39135  0.119003
66.3141  2.38340  0.124681
66.6456  2.46072  0.118912
66.9789  2.47507  0.128895
67.3138  2.32083  0.104409
67.6503  2.35112  0.117065
67.9886  2.36103  0.114595
68.3285  2.42540  0.129047
68.6702  2.28610  0.118457
69.0135  2.48172  0.125046
69.3586  2.48726  0.125692
69.7054  2.45053  0.121283
70.0539  2.35267  0.115345
70.4042  2.33872  0.115557
70.7562  2.55948  0.117412
71.1100  2.52473  0.119512
71.4655  2.46994  0.119113
71.8229  2.43238  0.118413
72.1820  2.46545  0.119985
72.5429  2.66212  0.128031
72.9056  2.56855  0.125966
73.2701  2.47632  0.112282
73.6365  2.61100  0.114667
74.0047  2.54145  0.116981
74.3747  2.57058  0.121052
74.7466  2.33462  0.117616
75.1203  2.55340  0.129058
75.4959  2.47581  0.114132
75.8734  2.79427  0.131217
76.2527  2.59235  0.135863
76.6340  2.86531  0.144256
77.0172  2.52979  0.115445
77.4023  2.64386  0.124546
77.7893  2.61845  0.132889
78.1782  2.62770  0.124223
78.5691  2.57851  0.131601
78.9620  2.57522  0.129598
79.3568  2.60690  0.140918
79.7535  2.64655  0.128813
80.1523  2.69719  0.143152
80.5531  2.59961  0.119418
80.9558  2.69063  0.134270
81.3606  2.74466  0.139530
81.7674  2.94553  0.147712
82.1763  2.49617  0.110816
82.5871  2.65445  0.132688
83.0001  2.81646  0.128500
83.4151  2.50601  0.124225
83.8321  2.61507  0.133677
84.2513  2.63823  0.129242
84.6726  2.69950  0.142367
85.0959  2.78358  0.142896
85.5214  2.57211  0.123613
85.9490  2.79572  0.139617
86.3788  2.39990  0.122909
86.8106  2.68570  0.129599
87.2447  2.86624  0.147344
87.6809  2.67824  0.130277
88.1193  2.89284  0.145706
88.5599  2.96392  0.156305
89.0027  2.94432  0.146392
89.4477  2.82685  0.141711
89.8950  2.57930  0.125767
90.3445  2.90348  0.138336
90.7962  2.60044  0.123188
91.2502  2.92857  0.144762
91.7064  2.63700  0.129690
92.1649  3.09358  0.144641
92.6258  3.02159  0.156111
93.0889  2.75398  0.124624
93.5543  2.98666  0.154276
94.0221  2.87369  0.144694
94.4922  2.84770  0.143072
94.9647  2.91772  0.140250
95.4395  2.99883  0.150312
95.9167  3.05621  0.154377
96.3963  2.97293  0.132723
96.8783  2.94627  0.148928
97.3627  3.20982  0.154079
97.8495  2.73669  0.135195
98.3387  3.06574  0.152895
98.8304  3.05361  0.152597
99.3246  3.37823  0.154649
99.8212  3.36453  0.154892
100.320  2.98149  0.140107
100.822  3.11680  0.144164
101.326  3.02438  0.144767
101.833  3.29608  0.152080
102.342  3.37312  0.157882
102.854  3.44924  0.168042
103.368  3.21652  0.147522
103.885  3.52454  0.161520
104.404  3.41638  0.155301
104.926  3.46025  0.159186
105.451  3.33700  0.157861
105.978  3.25394  0.154343
106.508  3.53291  0.168513
107.040  3.22788  0.146108
107.576  3.41164  0.170021
108.113  3.56197  0.174378
108.654  3.51569  0.165077
109.197  3.49182  0.163595
109.743  3.44289  0.168210
110.292  3.79857  0.164890
110.843  3.41035  0.161808
111.398  3.53445  0.163999
111.955  3.45218  0.169162
112.514  3.92668  0.189792
113.077  3.70905  0.183595
113.642  3.54355  0.172068
114.211  3.69940  0.169315
114.782  3.39435  0.172818
115.356  3.45076  0.161704
115.932  3.56872  0.172236
116.512  3.65099  0.175305
117.095  4.02899  0.190949
117.680  4.00185  0.180129
118.268  3.72100  0.162543
118.860  4.10092  0.189263
119.454  3.84827  0.168635
120.051  3.88455  0.171593
120.652  3.76979  0.166507
121.255  3.78710  0.167588
121.861  3.79618  0.174107
122.470  3.84201  0.160829
123.083  3.98648  0.181528
123.698  3.73904  0.177937
124.317  3.92814  0.184008
124.938  4.05625  0.179037
125.563  3.79439  0.171494
126.191  3.97148  0.184958
126.822  3.50326  0.173740
127.456  3.68198  0.175534
128.093  4.33028  0.208501
128.734  4.03765  0.192576
129.377  4.20685  0.198568
130.024  4.09346  0.191712
130.674  3.89815  0.192028
131.328  4.01020  0.187084
131.984  4.01685  0.194445
132.644  4.09714  0.192808
133.307  3.88408  0.186729
133.974  4.12216  0.200716
134.644  4.02156  0.184917
135.317  4.05411  0.185110
135.994  4.01005  0.171136
136.674  4.49111  0.215529
137.357  4.41942  0.201182
138.044  4.44379  0.219611
138.734  4.46901  0.209660
139.428  4.21024  0.186835
140.125  4.19108  0.208609
140.825  4.96441  0.216746
141.530  4.74293  0.208671
142.237  4.49835  0.205762
142.948  4.82238  0.221326
143.663  4.81184  0.230124
144.381  5.02507  0.227421
145.103  4.51839  0.210145
145.829  4.65144  0.205548
146.558  4.39215  0.212592
147.291  4.48464  0.210313
148.027  4.76302  0.219634
148.767  4.58735  0.219268
149.511  4.70003  0.224850
150.259  4.89837  0.222238
151.010  4.36218  0.205852
151.765  4.78535  0.234654
152.524  4.55352  0.205599
153.287  4.79849  0.229853
154.053  5.25655  0.244597
154.823  5.11305  0.214353
155.597  5.08073  0.247048
156.375  4.96647  0.224193
157.157  5.02337  0.240297
157.943  6.06349  0.298140
158.733  5.62946  0.271382
159.526  5.97191  0.285752
160.324  6.24272  0.317640
161.126  6.66414  0.316257
161.931  6.37838  0.312631
162.741  5.38251  0.268328
163.555  5.80942  0.258530
164.372  5.39442  0.238938
165.194  5.25607  0.241439
166.020  5.00685  0.228014
166.850  5.14190  0.238851
167.685  4.96095  0.227357
168.523  4.68569  0.216016
169.366  4.91546  0.245134
170.212  4.63722  0.217559
171.064  4.70578  0.228445
171.919  4.77959  0.215347
172.778  4.49748  0.215708
173.642  4.91276  0.227828
174.511  4.89826  0.218189
175.383  4.65086  0.220432
176.260  4.67923  0.233736
177.141  4.81510  0.226018
178.027  4.64632  0.212244
178.917  4.68347  0.232752
179.812  4.43857  0.211410
180.711  4.76373  0.240472
181.614  4.74583  0.244801
182.522  5.23041  0.272791
183.435  4.87302  0.232888
184.352  4.81607  0.251100
185.274  4.56946  0.242641
186.200  4.48639  0.244744
187.131  4.99106  0.276572
188.067  4.46292  0.226973
189.007  5.04806  0.247877
189.952  5.26809  0.293115
190.902  5.36568  0.297374
191.857  5.61329  0.319365
192.816  5.62365  0.313949
193.780  5.97540  0.331067
194.749  4.21215  0.231763
195.723  4.61102  0.249187
196.701  4.44579  0.242931
197.685  4.44310  0.243626
198.673  4.29828  0.224069
199.667  4.10525  0.202270
200.665  3.98413  0.198136
201.668  4.16616  0.188841
202.677  4.13340  0.202615
203.690  4.15036  0.214585
204.708  4.41717  0.223646
205.732  4.35075  0.205001
206.761  3.83466  0.185243
207.794  4.04809  0.203666
208.833  4.08839  0.215685
209.878  4.23099  0.221738
210.927  4.57663  0.214783
211.982  4.37414  0.217391
213.042  4.18512  0.220020
214.107  4.55524  0.227185
215.177  4.27332  0.211634
216.253  4.22807  0.198559
217.334  4.61249  0.229258
218.421  4.17956  0.205606
219.513  4.40796  0.229484
220.611  4.25892  0.213063
221.714  4.39928  0.225700
222.822  4.20356  0.212977
223.936  4.61837  0.241974
225.056  4.30923  0.223642
226.181  4.02950  0.203389
227.312  4.40549  0.235415
228.449  4.32434  0.219753
229.591  3.99364  0.206746
230.739  4.19882  0.228008
231.893  4.24734  0.232778
233.052  4.37363  0.230621
234.218  4.21345  0.229753
235.389  4.31834  0.229364
236.566  4.48748  0.215634
237.748  4.15057  0.221181
238.937  3.90621  0.204144
240.132  4.10890  0.217964
241.332  3.99104  0.210389
242.539  4.00477  0.223320
243.752  4.03413  0.206790
244.971  4.39477  0.229873
246.195  4.17111  0.215702
247.426  4.21601  0.231534
248.664  4.53120  0.243598
249.907  4.05564  0.193773
251.156  4.27221  0.218999
252.412  4.25186  0.220812
253.674  4.14039  0.224370
254.943  4.66302  0.237654
256.217  4.15373  0.217848
257.498  4.43771  0.225569
258.786  4.51081  0.249730
260.080  3.96207  0.205970
261.380  4.10942  0.205866
262.687  4.94952  0.250499
264.001  4.58528  0.249736
265.321  4.15669  0.216797
266.647  4.66948  0.252436
267.980  4.66457  0.235600
269.320  4.37798  0.226577
270.667  4.59292  0.226677
272.020  4.59805  0.232824
273.380  4.63629  0.249385
274.747  4.64588  0.231192
276.121  4.44202  0.209927
277.502  4.30981  0.220707
278.889  4.91657  0.246642
280.284  4.51999  0.255253
281.685  4.77319  0.246795
283.093  4.61001  0.240959
284.509  4.57398  0.229308
285.931  4.75595  0.258500
287.361  4.70359  0.232606
288.798  4.80273  0.249865
290.242  4.70408  0.239141
291.693  4.81897  0.241771
293.152  4.52519  0.223740
294.617  4.40398  0.222830
296.090  4.48989  0.234307
297.571  4.75654  0.257160
299.059  4.36787  0.229267
300.554  4.77723  0.247879
302.057  4.19635  0.216873
303.567  4.66937  0.241551
305.085  4.95637  0.240341
306.610  4.49881  0.230269
308.143  4.71116  0.238598
309.684  5.17375  0.251735
311.232  4.94968  0.271700
312.789  4.70056  0.242818
314.353  4.56583  0.232421
315.924  4.82226  0.257796
317.504  4.67671  0.229472
319.091  4.31907  0.206990
320.687  4.71088  0.245016
322.290  4.10971  0.221778
323.902  4.68101  0.255566
325.521  4.35863  0.215286
327.149  4.47501  0.240877
328.785  4.35268  0.228788
330.429  4.83502  0.268955
332.081  4.70231  0.266656
333.741  4.78586  0.280632
335.410  4.76885  0.262534
337.087  4.59211  0.244178
338.772  4.29338  0.219403
340.466  4.74474  0.241807
342.168  3.93595  0.226075
343.879  4.26418  0.218001
345.599  4.31829  0.222960
347.327  4.62860  0.239745
349.063  4.32326  0.222249
350.809  4.12401  0.218494
352.563  4.41401  0.241295
354.326  4.87114  0.268621
356.097  4.58195  0.248617
357.878  4.39930  0.238802
359.667  4.65073  0.252682
361.465  4.85676  0.262247
363.273  4.52414  0.264459
365.089  4.36394  0.241347
366.915  4.41866  0.251787
368.749  4.26986  0.240873
370.593  5.27205  0.271020
372.446  4.80133  0.266150
374.308  4.32028  0.248569
376.180  4.56476  0.261877
378.060  4.76212  0.271326
379.951  5.04789  0.276898
381.851  4.71169  0.243693
383.760  5.06067  0.261004
385.679  4.59593  0.234539
387.607  4.66136  0.252194
389.545  4.26595  0.256893
391.493  4.46260  0.241357
393.450  4.97545  0.276361
395.417  4.64279  0.234437
397.395  4.20341  0.229701
399.382  4.97791  0.254018
401.378  4.79882  0.255974
403.385  4.27164  0.233255
405.402  4.48374  0.260478
407.429  4.81393  0.268519
409.466  4.69619  0.266760
411.514  4.17593  0.234940
413.571  4.75306  0.241205
415.639  4.66039  0.237469
417.717  4.95301  0.263469
419.806  4.55235  0.239294
421.905  4.69515  0.261916
424.014  4.73377  0.267470
426.135  5.21356  0.288538
428.265  4.82362  0.259941
430.407  4.80266  0.247774
432.559  4.93933  0.280136
434.721  4.71647  0.264075
436.895  4.63494  0.255163
439.079  4.98567  0.276021
441.275  4.79301  0.245292
443.481  4.73499  0.274156
445.699  5.09530  0.290688
447.927  5.14733  0.283986
450.167  5.21586  0.265303
452.418  5.48847  0.329529
454.680  5.19803  0.293656
456.953  4.98634  0.280354
459.238  4.90088  0.276191
461.534  4.97411  0.285265
463.842  4.64779  0.256260
466.161  4.80363  0.269415
468.492  4.91057  0.283006
470.834  5.56162  0.309401
473.188  4.99207  0.297016
475.554  5.36518  0.297594
477.932  5.12826  0.298771
480.322  5.04877  0.276043
482.723  4.75370  0.275884
485.137  4.86836  0.283133
487.563  5.34894  0.310018
490.000  5.12253  0.293092
492.450  5.16026  0.300153
494.913  4.75649  0.279723
497.387  4.92461  0.292974
499.874  4.99001  1.32740
500.000  3.29666  0.533589
